wavelength_nm,reflectance
350.00,0.055043
351.00,0.055046
352.00,0.055050
353.00,0.054992
354.00,0.054911
355.00,0.054839
356.00,0.054779
357.00,0.054723
358.00,0.054655
359.00,0.054560
360.00,0.054445
361.00,0.054333
362.00,0.054244
363.00,0.054176
364.00,0.054122
365.00,0.054071
366.00,0.054018
367.00,0.053961
368.00,0.053898
369.00,0.053839
370.00,0.053795
371.00,0.053779
372.00,0.053793
373.00,0.053830
374.00,0.053885
375.00,0.053939
376.00,0.053966
377.00,0.053943
378.00,0.053889
379.00,0.053846
380.00,0.053851
381.00,0.053896
382.00,0.053947
383.00,0.053969
384.00,0.053962
385.00,0.053941
386.00,0.053924
387.00,0.053915
388.00,0.053913
389.00,0.053918
390.00,0.053932
391.00,0.053961
392.00,0.054008
393.00,0.054059
394.00,0.054089
395.00,0.054076
396.00,0.054033
397.00,0.053993
398.00,0.053986
399.00,0.054009
400.00,0.054040
401.00,0.054057
402.00,0.054060
403.00,0.054060
404.00,0.054068
405.00,0.054081
406.00,0.054088
407.00,0.054080
408.00,0.054060
409.00,0.054038
410.00,0.054022
411.00,0.054020
412.00,0.054036
413.00,0.054076
414.00,0.054126
415.00,0.054167
416.00,0.054181
417.00,0.054175
418.00,0.054171
419.00,0.054187
420.00,0.054223
421.00,0.054261
422.00,0.054290
423.00,0.054310
424.00,0.054334
425.00,0.054373
426.00,0.054425
427.00,0.054484
428.00,0.054540
429.00,0.054594
430.00,0.054646
431.00,0.054699
432.00,0.054755
433.00,0.054818
434.00,0.054891
435.00,0.054971
436.00,0.055051
437.00,0.055126
438.00,0.055194
439.00,0.055260
440.00,0.055327
441.00,0.055395
442.00,0.055463
443.00,0.055527
444.00,0.055588
445.00,0.055649
446.00,0.055713
447.00,0.055777
448.00,0.055840
449.00,0.055898
450.00,0.055951
451.00,0.056002
452.00,0.056053
453.00,0.056102
454.00,0.056149
455.00,0.056190
456.00,0.056229
457.00,0.056268
458.00,0.056310
459.00,0.056354
460.00,0.056397
461.00,0.056436
462.00,0.056471
463.00,0.056506
464.00,0.056546
465.00,0.056588
466.00,0.056629
467.00,0.056666
468.00,0.056700
469.00,0.056736
470.00,0.056778
471.00,0.056823
472.00,0.056867
473.00,0.056903
474.00,0.056934
475.00,0.056969
476.00,0.057014
477.00,0.057066
478.00,0.057118
479.00,0.057164
480.00,0.057203
481.00,0.057243
482.00,0.057290
483.00,0.057344
484.00,0.057404
485.00,0.057469
486.00,0.057538
487.00,0.057609
488.00,0.057681
489.00,0.057756
490.00,0.057833
491.00,0.057914
492.00,0.058000
493.00,0.058091
494.00,0.058187
495.00,0.058288
496.00,0.058390
497.00,0.058489
498.00,0.058588
499.00,0.058691
500.00,0.058800
501.00,0.058916
502.00,0.059033
503.00,0.059147
504.00,0.059258
505.00,0.059372
506.00,0.059492
507.00,0.059617
508.00,0.059740
509.00,0.059858
510.00,0.059971
511.00,0.060085
512.00,0.060206
513.00,0.060334
514.00,0.060467
515.00,0.060602
516.00,0.060740
517.00,0.060879
518.00,0.061021
519.00,0.061166
520.00,0.061315
521.00,0.061469
522.00,0.061629
523.00,0.061795
524.00,0.061967
525.00,0.062145
526.00,0.062329
527.00,0.062517
528.00,0.062712
529.00,0.062917
530.00,0.063133
531.00,0.063362
532.00,0.063604
533.00,0.063859
534.00,0.064128
535.00,0.064409
536.00,0.064705
537.00,0.065015
538.00,0.065343
539.00,0.065690
540.00,0.066057
541.00,0.066445
542.00,0.066853
543.00,0.067286
544.00,0.067747
545.00,0.068242
546.00,0.068772
547.00,0.069336
548.00,0.069935
549.00,0.070571
550.00,0.071246
551.00,0.071966
552.00,0.072731
553.00,0.073546
554.00,0.074412
555.00,0.075330
556.00,0.076303
557.00,0.077332
558.00,0.078417
559.00,0.079561
560.00,0.080766
561.00,0.082034
562.00,0.083367
563.00,0.084765
564.00,0.086228
565.00,0.087751
566.00,0.089333
567.00,0.090970
568.00,0.092661
569.00,0.094406
570.00,0.096200
571.00,0.098039
572.00,0.099920
573.00,0.101838
574.00,0.103788
575.00,0.105764
576.00,0.107762
577.00,0.109776
578.00,0.111801
579.00,0.113828
580.00,0.115850
581.00,0.117859
582.00,0.119850
583.00,0.121821
584.00,0.123769
585.00,0.125691
586.00,0.127584
587.00,0.129443
588.00,0.131263
589.00,0.133036
590.00,0.134755
591.00,0.136419
592.00,0.138030
593.00,0.139589
594.00,0.141095
595.00,0.142546
596.00,0.143940
597.00,0.145276
598.00,0.146555
599.00,0.147779
600.00,0.148948
601.00,0.150067
602.00,0.151137
603.00,0.152160
604.00,0.153135
605.00,0.154060
606.00,0.154938
607.00,0.155771
608.00,0.156559
609.00,0.157307
610.00,0.158017
611.00,0.158690
612.00,0.159329
613.00,0.159934
614.00,0.160508
615.00,0.161052
616.00,0.161567
617.00,0.162055
618.00,0.162518
619.00,0.162957
620.00,0.163373
621.00,0.163769
622.00,0.164147
623.00,0.164510
624.00,0.164857
625.00,0.165189
626.00,0.165506
627.00,0.165807
628.00,0.166094
629.00,0.166366
630.00,0.166625
631.00,0.166872
632.00,0.167108
633.00,0.167337
634.00,0.167561
635.00,0.167782
636.00,0.168003
637.00,0.168220
638.00,0.168433
639.00,0.168642
640.00,0.168850
641.00,0.169057
642.00,0.169263
643.00,0.169469
644.00,0.169674
645.00,0.169880
646.00,0.170086
647.00,0.170295
648.00,0.170505
649.00,0.170717
650.00,0.170928
651.00,0.171139
652.00,0.171349
653.00,0.171557
654.00,0.171765
655.00,0.171974
656.00,0.172186
657.00,0.172401
658.00,0.172617
659.00,0.172834
660.00,0.173052
661.00,0.173272
662.00,0.173495
663.00,0.173720
664.00,0.173946
665.00,0.174172
666.00,0.174398
667.00,0.174623
668.00,0.174849
669.00,0.175077
670.00,0.175307
671.00,0.175542
672.00,0.175781
673.00,0.176022
674.00,0.176264
675.00,0.176505
676.00,0.176747
677.00,0.176990
678.00,0.177232
679.00,0.177477
680.00,0.177722
681.00,0.177970
682.00,0.178220
683.00,0.178474
684.00,0.178728
685.00,0.178983
686.00,0.179236
687.00,0.179488
688.00,0.179739
689.00,0.179993
690.00,0.180247
691.00,0.180502
692.00,0.180756
693.00,0.181010
694.00,0.181264
695.00,0.181518
696.00,0.181771
697.00,0.182023
698.00,0.182271
699.00,0.182516
700.00,0.182757
701.00,0.182995
702.00,0.183231
703.00,0.183465
704.00,0.183700
705.00,0.183933
706.00,0.184163
707.00,0.184388
708.00,0.184607
709.00,0.184821
710.00,0.185030
711.00,0.185233
712.00,0.185430
713.00,0.185621
714.00,0.185805
715.00,0.185985
716.00,0.186161
717.00,0.186333
718.00,0.186499
719.00,0.186658
720.00,0.186809
721.00,0.186951
722.00,0.187084
723.00,0.187209
724.00,0.187330
725.00,0.187449
726.00,0.187564
727.00,0.187671
728.00,0.187766
729.00,0.187849
730.00,0.187923
731.00,0.187990
732.00,0.188050
733.00,0.188103
734.00,0.188148
735.00,0.188184
736.00,0.188214
737.00,0.188238
738.00,0.188258
739.00,0.188273
740.00,0.188281
741.00,0.188284
742.00,0.188280
743.00,0.188271
744.00,0.188255
745.00,0.188232
746.00,0.188201
747.00,0.188162
748.00,0.188118
749.00,0.188071
750.00,0.188020
751.00,0.187962
752.00,0.187895
753.00,0.187818
754.00,0.187735
755.00,0.187647
756.00,0.187555
757.00,0.187459
758.00,0.187360
759.00,0.187256
760.00,0.187148
761.00,0.187036
762.00,0.186918
763.00,0.186796
764.00,0.186671
765.00,0.186541
766.00,0.186405
767.00,0.186261
768.00,0.186111
769.00,0.185958
770.00,0.185806
771.00,0.185652
772.00,0.185497
773.00,0.185338
774.00,0.185176
775.00,0.185010
776.00,0.184843
777.00,0.184674
778.00,0.184504
779.00,0.184332
780.00,0.184159
781.00,0.183985
782.00,0.183810
783.00,0.183633
784.00,0.183457
785.00,0.183282
786.00,0.183107
787.00,0.182931
788.00,0.182752
789.00,0.182571
790.00,0.182388
791.00,0.182206
792.00,0.182025
793.00,0.181843
794.00,0.181661
795.00,0.181479
796.00,0.181297
797.00,0.181115
798.00,0.180935
799.00,0.180756
800.00,0.180577
801.00,0.180401
802.00,0.180224
803.00,0.180049
804.00,0.179874
805.00,0.179700
806.00,0.179526
807.00,0.179355
808.00,0.179187
809.00,0.179023
810.00,0.178862
811.00,0.178701
812.00,0.178537
813.00,0.178371
814.00,0.178205
815.00,0.178042
816.00,0.177883
817.00,0.177727
818.00,0.177574
819.00,0.177423
820.00,0.177273
821.00,0.177123
822.00,0.176973
823.00,0.176826
824.00,0.176683
825.00,0.176545
826.00,0.176409
827.00,0.176276
828.00,0.176144
829.00,0.176014
830.00,0.175887
831.00,0.175763
832.00,0.175641
833.00,0.175522
834.00,0.175405
835.00,0.175291
836.00,0.175179
837.00,0.175069
838.00,0.174962
839.00,0.174856
840.00,0.174754
841.00,0.174654
842.00,0.174558
843.00,0.174466
844.00,0.174377
845.00,0.174292
846.00,0.174209
847.00,0.174129
848.00,0.174050
849.00,0.173972
850.00,0.173895
851.00,0.173821
852.00,0.173749
853.00,0.173680
854.00,0.173617
855.00,0.173557
856.00,0.173500
857.00,0.173443
858.00,0.173388
859.00,0.173338
860.00,0.173295
861.00,0.173258
862.00,0.173223
863.00,0.173189
864.00,0.173154
865.00,0.173120
866.00,0.173089
867.00,0.173062
868.00,0.173040
869.00,0.173024
870.00,0.173013
871.00,0.173004
872.00,0.172993
873.00,0.172982
874.00,0.172976
875.00,0.172977
876.00,0.172984
877.00,0.172995
878.00,0.173004
879.00,0.173012
880.00,0.173022
881.00,0.173036
882.00,0.173057
883.00,0.173084
884.00,0.173118
885.00,0.173157
886.00,0.173194
887.00,0.173224
888.00,0.173248
889.00,0.173275
890.00,0.173309
891.00,0.173351
892.00,0.173397
893.00,0.173444
894.00,0.173493
895.00,0.173548
896.00,0.173611
897.00,0.173680
898.00,0.173747
899.00,0.173808
900.00,0.173863
901.00,0.173919
902.00,0.173982
903.00,0.174053
904.00,0.174131
905.00,0.174212
906.00,0.174296
907.00,0.174381
908.00,0.174465
909.00,0.174549
910.00,0.174635
911.00,0.174723
912.00,0.174814
913.00,0.174906
914.00,0.175000
915.00,0.175095
916.00,0.175192
917.00,0.175290
918.00,0.175392
919.00,0.175498
920.00,0.175609
921.00,0.175723
922.00,0.175835
923.00,0.175941
924.00,0.176042
925.00,0.176145
926.00,0.176254
927.00,0.176370
928.00,0.176490
929.00,0.176612
930.00,0.176733
931.00,0.176854
932.00,0.176974
933.00,0.177094
934.00,0.177216
935.00,0.177340
936.00,0.177468
937.00,0.177597
938.00,0.177727
939.00,0.177856
940.00,0.177982
941.00,0.178103
942.00,0.178221
943.00,0.178342
944.00,0.178472
945.00,0.178607
946.00,0.178742
947.00,0.178872
948.00,0.178997
949.00,0.179123
950.00,0.179255
951.00,0.179392
952.00,0.179529
953.00,0.179659
954.00,0.179783
955.00,0.179901
956.00,0.180017
957.00,0.180133
958.00,0.180256
959.00,0.180390
960.00,0.180532
961.00,0.180676
962.00,0.180813
963.00,0.180945
964.00,0.181073
965.00,0.181200
966.00,0.181328
967.00,0.181456
968.00,0.181583
969.00,0.181710
970.00,0.181836
971.00,0.181961
972.00,0.182084
973.00,0.182207
974.00,0.182326
975.00,0.182445
976.00,0.182565
977.00,0.182689
978.00,0.182814
979.00,0.182937
980.00,0.183056
981.00,0.183169
982.00,0.183277
983.00,0.183380
984.00,0.183483
985.00,0.183588
986.00,0.183701
987.00,0.183816
988.00,0.183924
989.00,0.184015
990.00,0.184096
991.00,0.184180
992.00,0.184278
993.00,0.184385
994.00,0.184488
995.00,0.184573
996.00,0.184649
997.00,0.184733
998.00,0.184840
999.00,0.184943
1000.00,0.184992
1001.00,0.184942
1002.00,0.184822
1003.00,0.184707
1004.00,0.184672
1005.00,0.184748
1006.00,0.184877
1007.00,0.184986
1008.00,0.185036
1009.00,0.185057
1010.00,0.185091
1011.00,0.185162
1012.00,0.185258
1013.00,0.185363
1014.00,0.185462
1015.00,0.185542
1016.00,0.185592
1017.00,0.185611
1018.00,0.185622
1019.00,0.185651
1020.00,0.185709
1021.00,0.185768
1022.00,0.185799
1023.00,0.185789
1024.00,0.185774
1025.00,0.185795
1026.00,0.185868
1027.00,0.185961
1028.00,0.186033
1029.00,0.186066
1030.00,0.186090
1031.00,0.186145
1032.00,0.186246
1033.00,0.186359
1034.00,0.186445
1035.00,0.186483
1036.00,0.186494
1037.00,0.186505
1038.00,0.186535
1039.00,0.186577
1040.00,0.186623
1041.00,0.186667
1042.00,0.186710
1043.00,0.186751
1044.00,0.186792
1045.00,0.186830
1046.00,0.186861
1047.00,0.186886
1048.00,0.186908
1049.00,0.186931
1050.00,0.186958
1051.00,0.186990
1052.00,0.187027
1053.00,0.187069
1054.00,0.187115
1055.00,0.187162
1056.00,0.187210
1057.00,0.187251
1058.00,0.187279
1059.00,0.187293
1060.00,0.187305
1061.00,0.187326
1062.00,0.187363
1063.00,0.187408
1064.00,0.187452
1065.00,0.187489
1066.00,0.187520
1067.00,0.187547
1068.00,0.187571
1069.00,0.187592
1070.00,0.187608
1071.00,0.187622
1072.00,0.187638
1073.00,0.187663
1074.00,0.187700
1075.00,0.187742
1076.00,0.187779
1077.00,0.187807
1078.00,0.187832
1079.00,0.187862
1080.00,0.187901
1081.00,0.187947
1082.00,0.187996
1083.00,0.188045
1084.00,0.188088
1085.00,0.188119
1086.00,0.188138
1087.00,0.188151
1088.00,0.188167
1089.00,0.188191
1090.00,0.188219
1091.00,0.188248
1092.00,0.188274
1093.00,0.188302
1094.00,0.188334
1095.00,0.188372
1096.00,0.188410
1097.00,0.188441
1098.00,0.188463
1099.00,0.188480
1100.00,0.188499
1101.00,0.188522
1102.00,0.188549
1103.00,0.188581
1104.00,0.188616
1105.00,0.188655
1106.00,0.188696
1107.00,0.188740
1108.00,0.188782
1109.00,0.188818
1110.00,0.188845
1111.00,0.188866
1112.00,0.188885
1113.00,0.188906
1114.00,0.188928
1115.00,0.188955
1116.00,0.188987
1117.00,0.189025
1118.00,0.189067
1119.00,0.189113
1120.00,0.189163
1121.00,0.189216
1122.00,0.189270
1123.00,0.189321
1124.00,0.189362
1125.00,0.189392
1126.00,0.189419
1127.00,0.189451
1128.00,0.189492
1129.00,0.189536
1130.00,0.189578
1131.00,0.189614
1132.00,0.189648
1133.00,0.189686
1134.00,0.189728
1135.00,0.189768
1136.00,0.189799
1137.00,0.189818
1138.00,0.189830
1139.00,0.189844
1140.00,0.189865
1141.00,0.189889
1142.00,0.189911
1143.00,0.189929
1144.00,0.189942
1145.00,0.189949
1146.00,0.189952
1147.00,0.189952
1148.00,0.189952
1149.00,0.189955
1150.00,0.189961
1151.00,0.189974
1152.00,0.189991
1153.00,0.190011
1154.00,0.190027
1155.00,0.190038
1156.00,0.190048
1157.00,0.190062
1158.00,0.190082
1159.00,0.190103
1160.00,0.190119
1161.00,0.190127
1162.00,0.190130
1163.00,0.190133
1164.00,0.190137
1165.00,0.190144
1166.00,0.190154
1167.00,0.190167
1168.00,0.190182
1169.00,0.190195
1170.00,0.190207
1171.00,0.190220
1172.00,0.190236
1173.00,0.190256
1174.00,0.190277
1175.00,0.190296
1176.00,0.190309
1177.00,0.190318
1178.00,0.190324
1179.00,0.190329
1180.00,0.190334
1181.00,0.190343
1182.00,0.190356
1183.00,0.190373
1184.00,0.190390
1185.00,0.190408
1186.00,0.190426
1187.00,0.190447
1188.00,0.190469
1189.00,0.190489
1190.00,0.190501
1191.00,0.190504
1192.00,0.190503
1193.00,0.190505
1194.00,0.190513
1195.00,0.190525
1196.00,0.190540
1197.00,0.190555
1198.00,0.190568
1199.00,0.190580
1200.00,0.190589
1201.00,0.190597
1202.00,0.190608
1203.00,0.190622
1204.00,0.190637
1205.00,0.190649
1206.00,0.190658
1207.00,0.190666
1208.00,0.190676
1209.00,0.190687
1210.00,0.190701
1211.00,0.190713
1212.00,0.190724
1213.00,0.190735
1214.00,0.190746
1215.00,0.190758
1216.00,0.190772
1217.00,0.190788
1218.00,0.190804
1219.00,0.190820
1220.00,0.190833
1221.00,0.190844
1222.00,0.190854
1223.00,0.190866
1224.00,0.190881
1225.00,0.190898
1226.00,0.190916
1227.00,0.190933
1228.00,0.190949
1229.00,0.190962
1230.00,0.190973
1231.00,0.190983
1232.00,0.190995
1233.00,0.191011
1234.00,0.191027
1235.00,0.191042
1236.00,0.191054
1237.00,0.191064
1238.00,0.191071
1239.00,0.191078
1240.00,0.191084
1241.00,0.191094
1242.00,0.191107
1243.00,0.191122
1244.00,0.191138
1245.00,0.191152
1246.00,0.191164
1247.00,0.191174
1248.00,0.191180
1249.00,0.191186
1250.00,0.191195
1251.00,0.191208
1252.00,0.191221
1253.00,0.191232
1254.00,0.191240
1255.00,0.191244
1256.00,0.191248
1257.00,0.191252
1258.00,0.191257
1259.00,0.191267
1260.00,0.191280
1261.00,0.191296
1262.00,0.191312
1263.00,0.191326
1264.00,0.191339
1265.00,0.191352
1266.00,0.191366
1267.00,0.191379
1268.00,0.191389
1269.00,0.191396
1270.00,0.191400
1271.00,0.191402
1272.00,0.191402
1273.00,0.191403
1274.00,0.191403
1275.00,0.191404
1276.00,0.191406
1277.00,0.191412
1278.00,0.191421
1279.00,0.191434
1280.00,0.191448
1281.00,0.191464
1282.00,0.191481
1283.00,0.191496
1284.00,0.191510
1285.00,0.191521
1286.00,0.191527
1287.00,0.191528
1288.00,0.191526
1289.00,0.191523
1290.00,0.191521
1291.00,0.191521
1292.00,0.191522
1293.00,0.191524
1294.00,0.191528
1295.00,0.191534
1296.00,0.191542
1297.00,0.191551
1298.00,0.191562
1299.00,0.191574
1300.00,0.191585
1301.00,0.191594
1302.00,0.191599
1303.00,0.191601
1304.00,0.191603
1305.00,0.191605
1306.00,0.191608
1307.00,0.191614
1308.00,0.191622
1309.00,0.191632
1310.00,0.191642
1311.00,0.191651
1312.00,0.191659
1313.00,0.191668
1314.00,0.191677
1315.00,0.191687
1316.00,0.191701
1317.00,0.191718
1318.00,0.191735
1319.00,0.191751
1320.00,0.191762
1321.00,0.191771
1322.00,0.191778
1323.00,0.191785
1324.00,0.191793
1325.00,0.191804
1326.00,0.191819
1327.00,0.191835
1328.00,0.191850
1329.00,0.191861
1330.00,0.191868
1331.00,0.191870
1332.00,0.191868
1333.00,0.191864
1334.00,0.191864
1335.00,0.191870
1336.00,0.191879
1337.00,0.191887
1338.00,0.191894
1339.00,0.191898
1340.00,0.191901
1341.00,0.191903
1342.00,0.191907
1343.00,0.191913
1344.00,0.191923
1345.00,0.191933
1346.00,0.191938
1347.00,0.191936
1348.00,0.191932
1349.00,0.191928
1350.00,0.191929
1351.00,0.191933
1352.00,0.191940
1353.00,0.191948
1354.00,0.191955
1355.00,0.191960
1356.00,0.191960
1357.00,0.191957
1358.00,0.191955
1359.00,0.191953
1360.00,0.191951
1361.00,0.191949
1362.00,0.191946
1363.00,0.191940
1364.00,0.191932
1365.00,0.191921
1366.00,0.191902
1367.00,0.191875
1368.00,0.191836
1369.00,0.191788
1370.00,0.191736
1371.00,0.191679
1372.00,0.191617
1373.00,0.191549
1374.00,0.191473
1375.00,0.191386
1376.00,0.191285
1377.00,0.191169
1378.00,0.191039
1379.00,0.190898
1380.00,0.190745
1381.00,0.190579
1382.00,0.190401
1383.00,0.190209
1384.00,0.190005
1385.00,0.189791
1386.00,0.189568
1387.00,0.189338
1388.00,0.189100
1389.00,0.188856
1390.00,0.188612
1391.00,0.188375
1392.00,0.188146
1393.00,0.187925
1394.00,0.187710
1395.00,0.187500
1396.00,0.187295
1397.00,0.187097
1398.00,0.186906
1399.00,0.186721
1400.00,0.186539
1401.00,0.186358
1402.00,0.186178
1403.00,0.186001
1404.00,0.185826
1405.00,0.185653
1406.00,0.185483
1407.00,0.185319
1408.00,0.185164
1409.00,0.185023
1410.00,0.184901
1411.00,0.184802
1412.00,0.184729
1413.00,0.184686
1414.00,0.184672
1415.00,0.184688
1416.00,0.184731
1417.00,0.184799
1418.00,0.184884
1419.00,0.184983
1420.00,0.185095
1421.00,0.185216
1422.00,0.185344
1423.00,0.185475
1424.00,0.185603
1425.00,0.185726
1426.00,0.185843
1427.00,0.185955
1428.00,0.186061
1429.00,0.186159
1430.00,0.186247
1431.00,0.186325
1432.00,0.186395
1433.00,0.186462
1434.00,0.186526
1435.00,0.186588
1436.00,0.186646
1437.00,0.186699
1438.00,0.186746
1439.00,0.186787
1440.00,0.186822
1441.00,0.186855
1442.00,0.186887
1443.00,0.186921
1444.00,0.186957
1445.00,0.186992
1446.00,0.187027
1447.00,0.187062
1448.00,0.187097
1449.00,0.187133
1450.00,0.187170
1451.00,0.187209
1452.00,0.187250
1453.00,0.187293
1454.00,0.187337
1455.00,0.187382
1456.00,0.187428
1457.00,0.187477
1458.00,0.187527
1459.00,0.187580
1460.00,0.187640
1461.00,0.187705
1462.00,0.187771
1463.00,0.187835
1464.00,0.187895
1465.00,0.187954
1466.00,0.188017
1467.00,0.188088
1468.00,0.188163
1469.00,0.188239
1470.00,0.188315
1471.00,0.188392
1472.00,0.188470
1473.00,0.188550
1474.00,0.188634
1475.00,0.188721
1476.00,0.188810
1477.00,0.188901
1478.00,0.188991
1479.00,0.189081
1480.00,0.189169
1481.00,0.189258
1482.00,0.189349
1483.00,0.189440
1484.00,0.189531
1485.00,0.189621
1486.00,0.189710
1487.00,0.189798
1488.00,0.189884
1489.00,0.189970
1490.00,0.190056
1491.00,0.190141
1492.00,0.190225
1493.00,0.190308
1494.00,0.190389
1495.00,0.190470
1496.00,0.190552
1497.00,0.190637
1498.00,0.190720
1499.00,0.190801
1500.00,0.190877
1501.00,0.190950
1502.00,0.191023
1503.00,0.191097
1504.00,0.191172
1505.00,0.191248
1506.00,0.191323
1507.00,0.191398
1508.00,0.191474
1509.00,0.191549
1510.00,0.191624
1511.00,0.191698
1512.00,0.191771
1513.00,0.191842
1514.00,0.191912
1515.00,0.191982
1516.00,0.192053
1517.00,0.192125
1518.00,0.192199
1519.00,0.192274
1520.00,0.192348
1521.00,0.192421
1522.00,0.192492
1523.00,0.192561
1524.00,0.192627
1525.00,0.192692
1526.00,0.192756
1527.00,0.192821
1528.00,0.192885
1529.00,0.192949
1530.00,0.193013
1531.00,0.193077
1532.00,0.193140
1533.00,0.193203
1534.00,0.193265
1535.00,0.193329
1536.00,0.193393
1537.00,0.193458
1538.00,0.193521
1539.00,0.193582
1540.00,0.193642
1541.00,0.193703
1542.00,0.193766
1543.00,0.193828
1544.00,0.193885
1545.00,0.193936
1546.00,0.193986
1547.00,0.194040
1548.00,0.194101
1549.00,0.194165
1550.00,0.194229
1551.00,0.194291
1552.00,0.194349
1553.00,0.194407
1554.00,0.194463
1555.00,0.194518
1556.00,0.194572
1557.00,0.194626
1558.00,0.194681
1559.00,0.194739
1560.00,0.194801
1561.00,0.194864
1562.00,0.194925
