wavelength_nm,reflectance
350.00,0.022122
351.00,0.022123
352.00,0.022124
353.00,0.022113
354.00,0.022092
355.00,0.022062
356.00,0.022019
357.00,0.021964
358.00,0.021905
359.00,0.021850
360.00,0.021824
361.00,0.021859
362.00,0.021983
363.00,0.022165
364.00,0.022339
365.00,0.022448
366.00,0.022502
367.00,0.022555
368.00,0.022655
369.00,0.022810
370.00,0.023000
371.00,0.023208
372.00,0.023414
373.00,0.023602
374.00,0.023756
375.00,0.023898
376.00,0.024070
377.00,0.024308
378.00,0.024593
379.00,0.024873
380.00,0.025102
381.00,0.025286
382.00,0.025465
383.00,0.025677
384.00,0.025926
385.00,0.026195
386.00,0.026472
387.00,0.026750
388.00,0.027031
389.00,0.027316
390.00,0.027602
391.00,0.027884
392.00,0.028158
393.00,0.028427
394.00,0.028699
395.00,0.028983
396.00,0.029277
397.00,0.029574
398.00,0.029868
399.00,0.030159
400.00,0.030445
401.00,0.030730
402.00,0.031018
403.00,0.031315
404.00,0.031628
405.00,0.031952
406.00,0.032281
407.00,0.032606
408.00,0.032925
409.00,0.033237
410.00,0.033541
411.00,0.033842
412.00,0.034148
413.00,0.034465
414.00,0.034793
415.00,0.035125
416.00,0.035457
417.00,0.035789
418.00,0.036127
419.00,0.036474
420.00,0.036827
421.00,0.037176
422.00,0.037511
423.00,0.037838
424.00,0.038170
425.00,0.038519
426.00,0.038881
427.00,0.039242
428.00,0.039591
429.00,0.039930
430.00,0.040274
431.00,0.040637
432.00,0.041014
433.00,0.041397
434.00,0.041776
435.00,0.042149
436.00,0.042519
437.00,0.042892
438.00,0.043267
439.00,0.043648
440.00,0.044036
441.00,0.044429
442.00,0.044828
443.00,0.045230
444.00,0.045634
445.00,0.046035
446.00,0.046429
447.00,0.046819
448.00,0.047214
449.00,0.047621
450.00,0.048038
451.00,0.048458
452.00,0.048875
453.00,0.049289
454.00,0.049704
455.00,0.050123
456.00,0.050546
457.00,0.050973
458.00,0.051403
459.00,0.051834
460.00,0.052269
461.00,0.052707
462.00,0.053149
463.00,0.053593
464.00,0.054038
465.00,0.054483
466.00,0.054926
467.00,0.055367
468.00,0.055808
469.00,0.056253
470.00,0.056707
471.00,0.057167
472.00,0.057628
473.00,0.058083
474.00,0.058535
475.00,0.058987
476.00,0.059443
477.00,0.059907
478.00,0.060377
479.00,0.060857
480.00,0.061340
481.00,0.061823
482.00,0.062301
483.00,0.062775
484.00,0.063255
485.00,0.063747
486.00,0.064249
487.00,0.064754
488.00,0.065255
489.00,0.065754
490.00,0.066253
491.00,0.066759
492.00,0.067270
493.00,0.067784
494.00,0.068301
495.00,0.068819
496.00,0.069340
497.00,0.069864
498.00,0.070393
499.00,0.070930
500.00,0.071476
501.00,0.072031
502.00,0.072588
503.00,0.073145
504.00,0.073701
505.00,0.074261
506.00,0.074830
507.00,0.075407
508.00,0.075992
509.00,0.076583
510.00,0.077178
511.00,0.077779
512.00,0.078384
513.00,0.078994
514.00,0.079612
515.00,0.080238
516.00,0.080872
517.00,0.081513
518.00,0.082162
519.00,0.082817
520.00,0.083480
521.00,0.084152
522.00,0.084834
523.00,0.085527
524.00,0.086233
525.00,0.086950
526.00,0.087679
527.00,0.088419
528.00,0.089168
529.00,0.089926
530.00,0.090694
531.00,0.091471
532.00,0.092259
533.00,0.093059
534.00,0.093871
535.00,0.094695
536.00,0.095530
537.00,0.096375
538.00,0.097229
539.00,0.098091
540.00,0.098962
541.00,0.099845
542.00,0.100745
543.00,0.101659
544.00,0.102585
545.00,0.103520
546.00,0.104463
547.00,0.105415
548.00,0.106378
549.00,0.107353
550.00,0.108340
551.00,0.109343
552.00,0.110359
553.00,0.111388
554.00,0.112426
555.00,0.113474
556.00,0.114532
557.00,0.115600
558.00,0.116678
559.00,0.117768
560.00,0.118869
561.00,0.119982
562.00,0.121105
563.00,0.122237
564.00,0.123378
565.00,0.124531
566.00,0.125697
567.00,0.126874
568.00,0.128059
569.00,0.129250
570.00,0.130449
571.00,0.131658
572.00,0.132880
573.00,0.134115
574.00,0.135358
575.00,0.136607
576.00,0.137863
577.00,0.139126
578.00,0.140398
579.00,0.141680
580.00,0.142972
581.00,0.144273
582.00,0.145584
583.00,0.146906
584.00,0.148239
585.00,0.149585
586.00,0.150942
587.00,0.152311
588.00,0.153691
589.00,0.155081
590.00,0.156482
591.00,0.157893
592.00,0.159314
593.00,0.160746
594.00,0.162188
595.00,0.163642
596.00,0.165109
597.00,0.166590
598.00,0.168085
599.00,0.169596
600.00,0.171120
601.00,0.172656
602.00,0.174204
603.00,0.175762
604.00,0.177331
605.00,0.178911
606.00,0.180500
607.00,0.182096
608.00,0.183697
609.00,0.185305
610.00,0.186926
611.00,0.188565
612.00,0.190221
613.00,0.191891
614.00,0.193570
615.00,0.195258
616.00,0.196955
617.00,0.198662
618.00,0.200379
619.00,0.202104
620.00,0.203836
621.00,0.205576
622.00,0.207326
623.00,0.209089
624.00,0.210864
625.00,0.212650
626.00,0.214446
627.00,0.216252
628.00,0.218065
629.00,0.219884
630.00,0.221707
631.00,0.223537
632.00,0.225373
633.00,0.227217
634.00,0.229069
635.00,0.230932
636.00,0.232804
637.00,0.234684
638.00,0.236570
639.00,0.238462
640.00,0.240366
641.00,0.242283
642.00,0.244212
643.00,0.246146
644.00,0.248080
645.00,0.250016
646.00,0.251957
647.00,0.253907
648.00,0.255865
649.00,0.257828
650.00,0.259793
651.00,0.261758
652.00,0.263724
653.00,0.265690
654.00,0.267656
655.00,0.269620
656.00,0.271583
657.00,0.273544
658.00,0.275506
659.00,0.277469
660.00,0.279434
661.00,0.281398
662.00,0.283361
663.00,0.285322
664.00,0.287283
665.00,0.289244
666.00,0.291206
667.00,0.293168
668.00,0.295128
669.00,0.297089
670.00,0.299050
671.00,0.301013
672.00,0.302977
673.00,0.304938
674.00,0.306895
675.00,0.308849
676.00,0.310802
677.00,0.312758
678.00,0.314715
679.00,0.316674
680.00,0.318633
681.00,0.320591
682.00,0.322548
683.00,0.324505
684.00,0.326461
685.00,0.328415
686.00,0.330367
687.00,0.332318
688.00,0.334268
689.00,0.336218
690.00,0.338168
691.00,0.340116
692.00,0.342060
693.00,0.344002
694.00,0.345943
695.00,0.347885
696.00,0.349827
697.00,0.351767
698.00,0.353701
699.00,0.355630
700.00,0.357553
701.00,0.359472
702.00,0.361388
703.00,0.363302
704.00,0.365218
705.00,0.367132
706.00,0.369045
707.00,0.370952
708.00,0.372852
709.00,0.374748
710.00,0.376637
711.00,0.378522
712.00,0.380403
713.00,0.382282
714.00,0.384156
715.00,0.386024
716.00,0.387882
717.00,0.389731
718.00,0.391574
719.00,0.393413
720.00,0.395247
721.00,0.397073
722.00,0.398890
723.00,0.400698
724.00,0.402499
725.00,0.404295
726.00,0.406086
727.00,0.407869
728.00,0.409640
729.00,0.411401
730.00,0.413151
731.00,0.414893
732.00,0.416625
733.00,0.418348
734.00,0.420060
735.00,0.421763
736.00,0.423458
737.00,0.425146
738.00,0.426826
739.00,0.428495
740.00,0.430152
741.00,0.431798
742.00,0.433433
743.00,0.435059
744.00,0.436676
745.00,0.438279
746.00,0.439866
747.00,0.441438
748.00,0.442996
749.00,0.444545
750.00,0.446084
751.00,0.447613
752.00,0.449132
753.00,0.450643
754.00,0.452151
755.00,0.453658
756.00,0.455163
757.00,0.456661
758.00,0.458147
759.00,0.459620
760.00,0.461083
761.00,0.462536
762.00,0.463981
763.00,0.465419
764.00,0.466848
765.00,0.468269
766.00,0.469679
767.00,0.471076
768.00,0.472462
769.00,0.473841
770.00,0.475217
771.00,0.476591
772.00,0.477959
773.00,0.479319
774.00,0.480670
775.00,0.482011
776.00,0.483342
777.00,0.484664
778.00,0.485977
779.00,0.487284
780.00,0.488584
781.00,0.489875
782.00,0.491156
783.00,0.492428
784.00,0.493696
785.00,0.494961
786.00,0.496224
787.00,0.497480
788.00,0.498726
789.00,0.499961
790.00,0.501185
791.00,0.502402
792.00,0.503609
793.00,0.504810
794.00,0.506005
795.00,0.507192
796.00,0.508371
797.00,0.509541
798.00,0.510702
799.00,0.511855
800.00,0.513001
801.00,0.514142
802.00,0.515281
803.00,0.516418
804.00,0.517552
805.00,0.518679
806.00,0.519794
807.00,0.520898
808.00,0.521994
809.00,0.523087
810.00,0.524176
811.00,0.525263
812.00,0.526347
813.00,0.527429
814.00,0.528506
815.00,0.529578
816.00,0.530641
817.00,0.531694
818.00,0.532734
819.00,0.533764
820.00,0.534791
821.00,0.535819
822.00,0.536848
823.00,0.537872
824.00,0.538884
825.00,0.539887
826.00,0.540886
827.00,0.541885
828.00,0.542881
829.00,0.543868
830.00,0.544839
831.00,0.545797
832.00,0.546748
833.00,0.547700
834.00,0.548653
835.00,0.549601
836.00,0.550541
837.00,0.551474
838.00,0.552405
839.00,0.553338
840.00,0.554272
841.00,0.555203
842.00,0.556126
843.00,0.557042
844.00,0.557954
845.00,0.558863
846.00,0.559767
847.00,0.560663
848.00,0.561547
849.00,0.562418
850.00,0.563279
851.00,0.564131
852.00,0.564976
853.00,0.565812
854.00,0.566640
855.00,0.567462
856.00,0.568277
857.00,0.569085
858.00,0.569883
859.00,0.570666
860.00,0.571429
861.00,0.572176
862.00,0.572914
863.00,0.573649
864.00,0.574383
865.00,0.575112
866.00,0.575833
867.00,0.576547
868.00,0.577258
869.00,0.577967
870.00,0.578678
871.00,0.579390
872.00,0.580107
873.00,0.580827
874.00,0.581553
875.00,0.582283
876.00,0.583015
877.00,0.583743
878.00,0.584461
879.00,0.585168
880.00,0.585863
881.00,0.586544
882.00,0.587212
883.00,0.587869
884.00,0.588514
885.00,0.589145
886.00,0.589754
887.00,0.590333
888.00,0.590887
889.00,0.591423
890.00,0.591949
891.00,0.592469
892.00,0.592985
893.00,0.593499
894.00,0.594009
895.00,0.594507
896.00,0.594990
897.00,0.595457
898.00,0.595909
899.00,0.596347
900.00,0.596773
901.00,0.597187
902.00,0.597588
903.00,0.597976
904.00,0.598350
905.00,0.598709
906.00,0.599056
907.00,0.599398
908.00,0.599740
909.00,0.600086
910.00,0.600436
911.00,0.600790
912.00,0.601151
913.00,0.601523
914.00,0.601906
915.00,0.602306
916.00,0.602724
917.00,0.603163
918.00,0.603622
919.00,0.604100
920.00,0.604592
921.00,0.605096
922.00,0.605606
923.00,0.606119
924.00,0.606633
925.00,0.607151
926.00,0.607671
927.00,0.608195
928.00,0.608717
929.00,0.609236
930.00,0.609749
931.00,0.610252
932.00,0.610744
933.00,0.611223
934.00,0.611689
935.00,0.612142
936.00,0.612582
937.00,0.613009
938.00,0.613421
939.00,0.613821
940.00,0.614210
941.00,0.614591
942.00,0.614965
943.00,0.615329
944.00,0.615684
945.00,0.616028
946.00,0.616361
947.00,0.616683
948.00,0.616992
949.00,0.617283
950.00,0.617551
951.00,0.617793
952.00,0.618005
953.00,0.618185
954.00,0.618330
955.00,0.618442
956.00,0.618518
957.00,0.618556
958.00,0.618554
959.00,0.618508
960.00,0.618417
961.00,0.618279
962.00,0.618095
963.00,0.617862
964.00,0.617582
965.00,0.617254
966.00,0.616879
967.00,0.616460
968.00,0.616001
969.00,0.615502
970.00,0.614964
971.00,0.614389
972.00,0.613792
973.00,0.613196
974.00,0.612624
975.00,0.612081
976.00,0.611564
977.00,0.611071
978.00,0.610601
979.00,0.610155
980.00,0.609734
981.00,0.609341
982.00,0.608980
983.00,0.608655
984.00,0.608369
985.00,0.608124
986.00,0.607922
987.00,0.607761
988.00,0.607636
989.00,0.607544
990.00,0.607487
991.00,0.607472
992.00,0.607501
993.00,0.607565
994.00,0.607643
995.00,0.607718
996.00,0.607823
997.00,0.608020
998.00,0.608355
999.00,0.608703
1000.00,0.608841
1001.00,0.608569
1002.00,0.608007
1003.00,0.607456
1004.00,0.607221
1005.00,0.607451
1006.00,0.607960
1007.00,0.608517
1008.00,0.608973
1009.00,0.609368
1010.00,0.609768
1011.00,0.610207
1012.00,0.610656
1013.00,0.611076
1014.00,0.611448
1015.00,0.611806
1016.00,0.612189
1017.00,0.612617
1018.00,0.613073
1019.00,0.613536
1020.00,0.613985
1021.00,0.614420
1022.00,0.614837
1023.00,0.615239
1024.00,0.615643
1025.00,0.616064
1026.00,0.616511
1027.00,0.616966
1028.00,0.617412
1029.00,0.617837
1030.00,0.618253
1031.00,0.618672
1032.00,0.619105
1033.00,0.619547
1034.00,0.619995
1035.00,0.620442
1036.00,0.620875
1037.00,0.621280
1038.00,0.621650
1039.00,0.621999
1040.00,0.622340
1041.00,0.622685
1042.00,0.623026
1043.00,0.623357
1044.00,0.623674
1045.00,0.623987
1046.00,0.624302
1047.00,0.624625
1048.00,0.624956
1049.00,0.625291
1050.00,0.625628
1051.00,0.625962
1052.00,0.626289
1053.00,0.626607
1054.00,0.626918
1055.00,0.627220
1056.00,0.627518
1057.00,0.627818
1058.00,0.628129
1059.00,0.628455
1060.00,0.628788
1061.00,0.629120
1062.00,0.629449
1063.00,0.629783
1064.00,0.630134
1065.00,0.630503
1066.00,0.630871
1067.00,0.631217
1068.00,0.631533
1069.00,0.631835
1070.00,0.632143
1071.00,0.632471
1072.00,0.632818
1073.00,0.633181
1074.00,0.633555
1075.00,0.633929
1076.00,0.634292
1077.00,0.634639
1078.00,0.634984
1079.00,0.635340
1080.00,0.635713
1081.00,0.636081
1082.00,0.636422
1083.00,0.636730
1084.00,0.637035
1085.00,0.637374
1086.00,0.637762
1087.00,0.638165
1088.00,0.638543
1089.00,0.638874
1090.00,0.639169
1091.00,0.639448
1092.00,0.639723
1093.00,0.639995
1094.00,0.640266
1095.00,0.640529
1096.00,0.640772
1097.00,0.640980
1098.00,0.641150
1099.00,0.641299
1100.00,0.641451
1101.00,0.641613
1102.00,0.641760
1103.00,0.641865
1104.00,0.641911
1105.00,0.641912
1106.00,0.641886
1107.00,0.641838
1108.00,0.641748
1109.00,0.641591
1110.00,0.641352
1111.00,0.641029
1112.00,0.640627
1113.00,0.640150
1114.00,0.639607
1115.00,0.639007
1116.00,0.638352
1117.00,0.637627
1118.00,0.636812
1119.00,0.635900
1120.00,0.634908
1121.00,0.633859
1122.00,0.632764
1123.00,0.631621
1124.00,0.630425
1125.00,0.629172
1126.00,0.627869
1127.00,0.626523
1128.00,0.625145
1129.00,0.623757
1130.00,0.622380
1131.00,0.621030
1132.00,0.619703
1133.00,0.618392
1134.00,0.617101
1135.00,0.615848
1136.00,0.614658
1137.00,0.613544
1138.00,0.612496
1139.00,0.611500
1140.00,0.610547
1141.00,0.609633
1142.00,0.608751
1143.00,0.607897
1144.00,0.607064
1145.00,0.606244
1146.00,0.605430
1147.00,0.604613
1148.00,0.603784
1149.00,0.602939
1150.00,0.602081
1151.00,0.601214
1152.00,0.600339
1153.00,0.599458
1154.00,0.598566
1155.00,0.597665
1156.00,0.596753
1157.00,0.595828
1158.00,0.594892
1159.00,0.593947
1160.00,0.593001
1161.00,0.592057
1162.00,0.591124
1163.00,0.590209
1164.00,0.589317
1165.00,0.588435
1166.00,0.587555
1167.00,0.586667
1168.00,0.585780
1169.00,0.584900
1170.00,0.584030
1171.00,0.583164
1172.00,0.582298
1173.00,0.581427
1174.00,0.580546
1175.00,0.579652
1176.00,0.578741
1177.00,0.577805
1178.00,0.576834
1179.00,0.575827
1180.00,0.574791
1181.00,0.573735
1182.00,0.572667
1183.00,0.571591
1184.00,0.570511
1185.00,0.569430
1186.00,0.568358
1187.00,0.567304
1188.00,0.566278
1189.00,0.565296
1190.00,0.564375
1191.00,0.563524
1192.00,0.562742
1193.00,0.562024
1194.00,0.561367
1195.00,0.560773
1196.00,0.560242
1197.00,0.559777
1198.00,0.559374
1199.00,0.559033
1200.00,0.558748
1201.00,0.558506
1202.00,0.558291
1203.00,0.558093
1204.00,0.557913
1205.00,0.557748
1206.00,0.557598
1207.00,0.557460
1208.00,0.557331
1209.00,0.557209
1210.00,0.557100
1211.00,0.557012
1212.00,0.556951
1213.00,0.556920
1214.00,0.556927
1215.00,0.556973
1216.00,0.557053
1217.00,0.557160
1218.00,0.557293
1219.00,0.557464
1220.00,0.557684
1221.00,0.557957
1222.00,0.558272
1223.00,0.558613
1224.00,0.558973
1225.00,0.559357
1226.00,0.559774
1227.00,0.560228
1228.00,0.560713
1229.00,0.561222
1230.00,0.561751
1231.00,0.562296
1232.00,0.562859
1233.00,0.563436
1234.00,0.564026
1235.00,0.564625
1236.00,0.565234
1237.00,0.565851
1238.00,0.566479
1239.00,0.567116
1240.00,0.567755
1241.00,0.568388
1242.00,0.569009
1243.00,0.569617
1244.00,0.570212
1245.00,0.570794
1246.00,0.571364
1247.00,0.571924
1248.00,0.572474
1249.00,0.573009
1250.00,0.573524
1251.00,0.574016
1252.00,0.574491
1253.00,0.574953
1254.00,0.575405
1255.00,0.575838
1256.00,0.576245
1257.00,0.576621
1258.00,0.576975
1259.00,0.577316
1260.00,0.577650
1261.00,0.577972
1262.00,0.578277
1263.00,0.578562
1264.00,0.578837
1265.00,0.579110
1266.00,0.579390
1267.00,0.579680
1268.00,0.579980
1269.00,0.580292
1270.00,0.580615
1271.00,0.580949
1272.00,0.581294
1273.00,0.581652
1274.00,0.582024
1275.00,0.582413
1276.00,0.582821
1277.00,0.583250
1278.00,0.583702
1279.00,0.584172
1280.00,0.584657
1281.00,0.585156
1282.00,0.585666
1283.00,0.586190
1284.00,0.586726
1285.00,0.587266
1286.00,0.587801
1287.00,0.588326
1288.00,0.588843
1289.00,0.589353
1290.00,0.589859
1291.00,0.590355
1292.00,0.590836
1293.00,0.591297
1294.00,0.591730
1295.00,0.592129
1296.00,0.592488
1297.00,0.592811
1298.00,0.593100
1299.00,0.593359
1300.00,0.593587
1301.00,0.593786
1302.00,0.593957
1303.00,0.594095
1304.00,0.594198
1305.00,0.594264
1306.00,0.594293
1307.00,0.594285
1308.00,0.594239
1309.00,0.594158
1310.00,0.594044
1311.00,0.593897
1312.00,0.593712
1313.00,0.593484
1314.00,0.593208
1315.00,0.592892
1316.00,0.592540
1317.00,0.592156
1318.00,0.591732
1319.00,0.591264
1320.00,0.590746
1321.00,0.590176
1322.00,0.589557
1323.00,0.588886
1324.00,0.588157
1325.00,0.587363
1326.00,0.586502
1327.00,0.585577
1328.00,0.584592
1329.00,0.583550
1330.00,0.582443
1331.00,0.581266
1332.00,0.580011
1333.00,0.578676
1334.00,0.577260
1335.00,0.575759
1336.00,0.574172
1337.00,0.572495
1338.00,0.570729
1339.00,0.568878
1340.00,0.566946
1341.00,0.564939
1342.00,0.562867
1343.00,0.560738
1344.00,0.558562
1345.00,0.556348
1346.00,0.554104
1347.00,0.551843
1348.00,0.549579
1349.00,0.547330
1350.00,0.545109
1351.00,0.542921
1352.00,0.540771
1353.00,0.538662
1354.00,0.536594
1355.00,0.534568
1356.00,0.532584
1357.00,0.530640
1358.00,0.528737
1359.00,0.526874
1360.00,0.525059
1361.00,0.523295
1362.00,0.521590
1363.00,0.519951
1364.00,0.518382
1365.00,0.516890
1366.00,0.515483
1367.00,0.514167
1368.00,0.512947
1369.00,0.511818
1370.00,0.510776
1371.00,0.509813
1372.00,0.508919
1373.00,0.508085
1374.00,0.507299
1375.00,0.506549
1376.00,0.505823
1377.00,0.505109
1378.00,0.504394
1379.00,0.503666
1380.00,0.502910
1381.00,0.502112
1382.00,0.501257
1383.00,0.500330
1384.00,0.499323
1385.00,0.498223
1386.00,0.497022
1387.00,0.495710
1388.00,0.494275
1389.00,0.492712
1390.00,0.491020
1391.00,0.489200
1392.00,0.487252
1393.00,0.485170
1394.00,0.482947
1395.00,0.480580
1396.00,0.478078
1397.00,0.475448
1398.00,0.472696
1399.00,0.469815
1400.00,0.466797
1401.00,0.463639
1402.00,0.460350
1403.00,0.456939
1404.00,0.453414
1405.00,0.449778
1406.00,0.446035
1407.00,0.442191
1408.00,0.438255
1409.00,0.434238
1410.00,0.430149
1411.00,0.426005
1412.00,0.421822
1413.00,0.417616
1414.00,0.413409
1415.00,0.409222
1416.00,0.405074
1417.00,0.400975
1418.00,0.396934
1419.00,0.392966
1420.00,0.389096
1421.00,0.385351
1422.00,0.381751
1423.00,0.378298
1424.00,0.374994
1425.00,0.371842
1426.00,0.368850
1427.00,0.366031
1428.00,0.363387
1429.00,0.360910
1430.00,0.358590
1431.00,0.356420
1432.00,0.354398
1433.00,0.352521
1434.00,0.350785
1435.00,0.349177
1436.00,0.347685
1437.00,0.346297
1438.00,0.345013
1439.00,0.343830
1440.00,0.342746
1441.00,0.341753
1442.00,0.340844
1443.00,0.340014
1444.00,0.339258
1445.00,0.338571
1446.00,0.337952
1447.00,0.337397
1448.00,0.336905
1449.00,0.336473
1450.00,0.336096
1451.00,0.335767
1452.00,0.335481
1453.00,0.335235
1454.00,0.335029
1455.00,0.334857
1456.00,0.334716
1457.00,0.334600
1458.00,0.334506
1459.00,0.334428
1460.00,0.334365
1461.00,0.334312
1462.00,0.334270
1463.00,0.334239
1464.00,0.334220
1465.00,0.334214
1466.00,0.334225
1467.00,0.334255
1468.00,0.334302
1469.00,0.334363
1470.00,0.334438
1471.00,0.334528
1472.00,0.334635
1473.00,0.334760
1474.00,0.334905
1475.00,0.335070
1476.00,0.335255
1477.00,0.335460
1478.00,0.335685
1479.00,0.335929
1480.00,0.336192
1481.00,0.336474
1482.00,0.336776
1483.00,0.337098
1484.00,0.337438
1485.00,0.337798
1486.00,0.338175
1487.00,0.338567
1488.00,0.338974
1489.00,0.339394
1490.00,0.339830
1491.00,0.340281
1492.00,0.340746
1493.00,0.341225
1494.00,0.341718
