wavelength_nm,reflectance
350.00,0.152649
351.00,0.152658
352.00,0.152669
353.00,0.152829
354.00,0.153065
355.00,0.153330
356.00,0.153635
357.00,0.153976
358.00,0.154332
359.00,0.154689
360.00,0.155051
361.00,0.155437
362.00,0.155864
363.00,0.156324
364.00,0.156796
365.00,0.157260
366.00,0.157726
367.00,0.158222
368.00,0.158774
369.00,0.159381
370.00,0.160025
371.00,0.160688
372.00,0.161365
373.00,0.162060
374.00,0.162775
375.00,0.163518
376.00,0.164299
377.00,0.165125
378.00,0.165987
379.00,0.166858
380.00,0.167719
381.00,0.168567
382.00,0.169413
383.00,0.170267
384.00,0.171129
385.00,0.171995
386.00,0.172859
387.00,0.173722
388.00,0.174590
389.00,0.175466
390.00,0.176343
391.00,0.177203
392.00,0.178034
393.00,0.178839
394.00,0.179636
395.00,0.180440
396.00,0.181249
397.00,0.182056
398.00,0.182849
399.00,0.183626
400.00,0.184388
401.00,0.185135
402.00,0.185872
403.00,0.186603
404.00,0.187334
405.00,0.188062
406.00,0.188781
407.00,0.189488
408.00,0.190183
409.00,0.190872
410.00,0.191560
411.00,0.192256
412.00,0.192966
413.00,0.193696
414.00,0.194439
415.00,0.195176
416.00,0.195894
417.00,0.196601
418.00,0.197320
419.00,0.198072
420.00,0.198855
421.00,0.199651
422.00,0.200448
423.00,0.201245
424.00,0.202050
425.00,0.202872
426.00,0.203711
427.00,0.204562
428.00,0.205421
429.00,0.206287
430.00,0.207166
431.00,0.208061
432.00,0.208966
433.00,0.209871
434.00,0.210769
435.00,0.211658
436.00,0.212546
437.00,0.213438
438.00,0.214330
439.00,0.215211
440.00,0.216075
441.00,0.216920
442.00,0.217749
443.00,0.218567
444.00,0.219372
445.00,0.220160
446.00,0.220925
447.00,0.221667
448.00,0.222383
449.00,0.223071
450.00,0.223737
451.00,0.224384
452.00,0.225020
453.00,0.225640
454.00,0.226237
455.00,0.226802
456.00,0.227340
457.00,0.227859
458.00,0.228370
459.00,0.228874
460.00,0.229368
461.00,0.229848
462.00,0.230314
463.00,0.230765
464.00,0.231203
465.00,0.231634
466.00,0.232065
467.00,0.232504
468.00,0.232952
469.00,0.233404
470.00,0.233854
471.00,0.234302
472.00,0.234751
473.00,0.235202
474.00,0.235658
475.00,0.236123
476.00,0.236600
477.00,0.237089
478.00,0.237589
479.00,0.238099
480.00,0.238619
481.00,0.239154
482.00,0.239705
483.00,0.240272
484.00,0.240850
485.00,0.241436
486.00,0.242030
487.00,0.242637
488.00,0.243259
489.00,0.243896
490.00,0.244545
491.00,0.245204
492.00,0.245873
493.00,0.246550
494.00,0.247236
495.00,0.247930
496.00,0.248629
497.00,0.249331
498.00,0.250036
499.00,0.250747
500.00,0.251464
501.00,0.252187
502.00,0.252911
503.00,0.253630
504.00,0.254345
505.00,0.255058
506.00,0.255769
507.00,0.256481
508.00,0.257194
509.00,0.257911
510.00,0.258628
511.00,0.259346
512.00,0.260062
513.00,0.260776
514.00,0.261488
515.00,0.262200
516.00,0.262913
517.00,0.263627
518.00,0.264344
519.00,0.265063
520.00,0.265782
521.00,0.266499
522.00,0.267213
523.00,0.267927
524.00,0.268641
525.00,0.269356
526.00,0.270070
527.00,0.270783
528.00,0.271493
529.00,0.272201
530.00,0.272905
531.00,0.273607
532.00,0.274308
533.00,0.275009
534.00,0.275708
535.00,0.276400
536.00,0.277084
537.00,0.277759
538.00,0.278429
539.00,0.279100
540.00,0.279769
541.00,0.280435
542.00,0.281092
543.00,0.281743
544.00,0.282390
545.00,0.283037
546.00,0.283683
547.00,0.284327
548.00,0.284967
549.00,0.285602
550.00,0.286229
551.00,0.286847
552.00,0.287459
553.00,0.288068
554.00,0.288676
555.00,0.289283
556.00,0.289886
557.00,0.290483
558.00,0.291074
559.00,0.291658
560.00,0.292237
561.00,0.292810
562.00,0.293379
563.00,0.293943
564.00,0.294502
565.00,0.295054
566.00,0.295597
567.00,0.296132
568.00,0.296660
569.00,0.297184
570.00,0.297700
571.00,0.298207
572.00,0.298701
573.00,0.299183
574.00,0.299654
575.00,0.300118
576.00,0.300572
577.00,0.301015
578.00,0.301442
579.00,0.301854
580.00,0.302251
581.00,0.302634
582.00,0.303004
583.00,0.303362
584.00,0.303709
585.00,0.304047
586.00,0.304378
587.00,0.304705
588.00,0.305024
589.00,0.305332
590.00,0.305625
591.00,0.305906
592.00,0.306179
593.00,0.306448
594.00,0.306713
595.00,0.306969
596.00,0.307210
597.00,0.307439
598.00,0.307660
599.00,0.307878
600.00,0.308095
601.00,0.308309
602.00,0.308520
603.00,0.308728
604.00,0.308929
605.00,0.309122
606.00,0.309307
607.00,0.309488
608.00,0.309667
609.00,0.309843
610.00,0.310012
611.00,0.310172
612.00,0.310324
613.00,0.310473
614.00,0.310622
615.00,0.310771
616.00,0.310917
617.00,0.311058
618.00,0.311194
619.00,0.311327
620.00,0.311457
621.00,0.311584
622.00,0.311705
623.00,0.311819
624.00,0.311924
625.00,0.312023
626.00,0.312116
627.00,0.312205
628.00,0.312291
629.00,0.312376
630.00,0.312461
631.00,0.312545
632.00,0.312629
633.00,0.312712
634.00,0.312795
635.00,0.312879
636.00,0.312964
637.00,0.313046
638.00,0.313125
639.00,0.313202
640.00,0.313281
641.00,0.313361
642.00,0.313443
643.00,0.313524
644.00,0.313598
645.00,0.313669
646.00,0.313738
647.00,0.313808
648.00,0.313879
649.00,0.313952
650.00,0.314025
651.00,0.314097
652.00,0.314169
653.00,0.314240
654.00,0.314309
655.00,0.314379
656.00,0.314451
657.00,0.314523
658.00,0.314592
659.00,0.314656
660.00,0.314718
661.00,0.314781
662.00,0.314850
663.00,0.314924
664.00,0.314998
665.00,0.315071
666.00,0.315140
667.00,0.315205
668.00,0.315265
669.00,0.315323
670.00,0.315382
671.00,0.315443
672.00,0.315507
673.00,0.315573
674.00,0.315641
675.00,0.315708
676.00,0.315773
677.00,0.315832
678.00,0.315887
679.00,0.315941
680.00,0.315997
681.00,0.316054
682.00,0.316111
683.00,0.316166
684.00,0.316220
685.00,0.316273
686.00,0.316328
687.00,0.316385
688.00,0.316441
689.00,0.316496
690.00,0.316550
691.00,0.316602
692.00,0.316651
693.00,0.316699
694.00,0.316745
695.00,0.316792
696.00,0.316839
697.00,0.316887
698.00,0.316936
699.00,0.316984
700.00,0.317031
701.00,0.317076
702.00,0.317118
703.00,0.317161
704.00,0.317204
705.00,0.317249
706.00,0.317295
707.00,0.317340
708.00,0.317386
709.00,0.317432
710.00,0.317478
711.00,0.317523
712.00,0.317565
713.00,0.317604
714.00,0.317640
715.00,0.317675
716.00,0.317710
717.00,0.317745
718.00,0.317780
719.00,0.317814
720.00,0.317846
721.00,0.317877
722.00,0.317907
723.00,0.317936
724.00,0.317966
725.00,0.317996
726.00,0.318027
727.00,0.318057
728.00,0.318085
729.00,0.318110
730.00,0.318132
731.00,0.318151
732.00,0.318167
733.00,0.318185
734.00,0.318207
735.00,0.318233
736.00,0.318259
737.00,0.318285
738.00,0.318308
739.00,0.318329
740.00,0.318346
741.00,0.318360
742.00,0.318371
743.00,0.318382
744.00,0.318391
745.00,0.318400
746.00,0.318407
747.00,0.318412
748.00,0.318418
749.00,0.318423
750.00,0.318428
751.00,0.318431
752.00,0.318433
753.00,0.318433
754.00,0.318430
755.00,0.318423
756.00,0.318414
757.00,0.318404
758.00,0.318394
759.00,0.318384
760.00,0.318373
761.00,0.318360
762.00,0.318344
763.00,0.318326
764.00,0.318305
765.00,0.318282
766.00,0.318258
767.00,0.318235
768.00,0.318212
769.00,0.318190
770.00,0.318167
771.00,0.318144
772.00,0.318118
773.00,0.318087
774.00,0.318053
775.00,0.318017
776.00,0.317983
777.00,0.317949
778.00,0.317913
779.00,0.317872
780.00,0.317828
781.00,0.317782
782.00,0.317738
783.00,0.317695
784.00,0.317653
785.00,0.317608
786.00,0.317563
787.00,0.317517
788.00,0.317471
789.00,0.317425
790.00,0.317377
791.00,0.317325
792.00,0.317269
793.00,0.317212
794.00,0.317153
795.00,0.317095
796.00,0.317037
797.00,0.316980
798.00,0.316926
799.00,0.316873
800.00,0.316823
801.00,0.316774
802.00,0.316722
803.00,0.316662
804.00,0.316598
805.00,0.316533
806.00,0.316471
807.00,0.316414
808.00,0.316356
809.00,0.316297
810.00,0.316236
811.00,0.316172
812.00,0.316109
813.00,0.316044
814.00,0.315976
815.00,0.315905
816.00,0.315834
817.00,0.315766
818.00,0.315707
819.00,0.315651
820.00,0.315591
821.00,0.315520
822.00,0.315440
823.00,0.315360
824.00,0.315290
825.00,0.315227
826.00,0.315167
827.00,0.315102
828.00,0.315031
829.00,0.314957
830.00,0.314881
831.00,0.314804
832.00,0.314729
833.00,0.314659
834.00,0.314592
835.00,0.314526
836.00,0.314458
837.00,0.314387
838.00,0.314314
839.00,0.314241
840.00,0.314167
841.00,0.314095
842.00,0.314025
843.00,0.313956
844.00,0.313886
845.00,0.313814
846.00,0.313738
847.00,0.313663
848.00,0.313589
849.00,0.313518
850.00,0.313452
851.00,0.313391
852.00,0.313333
853.00,0.313272
854.00,0.313204
855.00,0.313132
856.00,0.313060
857.00,0.312994
858.00,0.312933
859.00,0.312871
860.00,0.312804
861.00,0.312731
862.00,0.312656
863.00,0.312581
864.00,0.312508
865.00,0.312438
866.00,0.312372
867.00,0.312309
868.00,0.312250
869.00,0.312193
870.00,0.312135
871.00,0.312077
872.00,0.312014
873.00,0.311950
874.00,0.311886
875.00,0.311827
876.00,0.311771
877.00,0.311717
878.00,0.311663
879.00,0.311609
880.00,0.311554
881.00,0.311498
882.00,0.311442
883.00,0.311390
884.00,0.311342
885.00,0.311299
886.00,0.311257
887.00,0.311214
888.00,0.311169
889.00,0.311120
890.00,0.311067
891.00,0.311011
892.00,0.310957
893.00,0.310909
894.00,0.310866
895.00,0.310826
896.00,0.310786
897.00,0.310746
898.00,0.310707
899.00,0.310671
900.00,0.310636
901.00,0.310600
902.00,0.310562
903.00,0.310522
904.00,0.310483
905.00,0.310446
906.00,0.310412
907.00,0.310379
908.00,0.310343
909.00,0.310306
910.00,0.310269
911.00,0.310234
912.00,0.310201
913.00,0.310171
914.00,0.310145
915.00,0.310120
916.00,0.310094
917.00,0.310066
918.00,0.310037
919.00,0.310009
920.00,0.309985
921.00,0.309964
922.00,0.309943
923.00,0.309918
924.00,0.309891
925.00,0.309868
926.00,0.309851
927.00,0.309839
928.00,0.309826
929.00,0.309808
930.00,0.309785
931.00,0.309760
932.00,0.309739
933.00,0.309723
934.00,0.309709
935.00,0.309696
936.00,0.309684
937.00,0.309672
938.00,0.309659
939.00,0.309645
940.00,0.309630
941.00,0.309615
942.00,0.309601
943.00,0.309589
944.00,0.309580
945.00,0.309573
946.00,0.309566
947.00,0.309557
948.00,0.309547
949.00,0.309541
950.00,0.309541
951.00,0.309545
952.00,0.309547
953.00,0.309542
954.00,0.309531
955.00,0.309521
956.00,0.309516
957.00,0.309517
958.00,0.309522
959.00,0.309527
960.00,0.309530
961.00,0.309527
962.00,0.309515
963.00,0.309497
964.00,0.309481
965.00,0.309472
966.00,0.309471
967.00,0.309472
968.00,0.309471
969.00,0.309470
970.00,0.309471
971.00,0.309480
972.00,0.309494
973.00,0.309509
974.00,0.309521
975.00,0.309527
976.00,0.309526
977.00,0.309518
978.00,0.309506
979.00,0.309499
980.00,0.309503
981.00,0.309518
982.00,0.309540
983.00,0.309562
984.00,0.309580
985.00,0.309590
986.00,0.309586
987.00,0.309573
988.00,0.309562
989.00,0.309561
990.00,0.309569
991.00,0.309577
992.00,0.309577
993.00,0.309571
994.00,0.309565
995.00,0.309565
996.00,0.309570
997.00,0.309578
998.00,0.309585
999.00,0.309591
1000.00,0.309593
1001.00,0.309590
1002.00,0.309586
1003.00,0.309589
1004.00,0.309606
1005.00,0.309635
1006.00,0.309660
1007.00,0.309659
1008.00,0.309627
1009.00,0.309588
1010.00,0.309571
1011.00,0.309592
1012.00,0.309635
1013.00,0.309681
1014.00,0.309713
1015.00,0.309723
1016.00,0.309703
1017.00,0.309653
1018.00,0.309599
1019.00,0.309564
1020.00,0.309562
1021.00,0.309572
1022.00,0.309571
1023.00,0.309548
1024.00,0.309526
1025.00,0.309533
1026.00,0.309575
1027.00,0.309623
1028.00,0.309638
1029.00,0.309605
1030.00,0.309562
1031.00,0.309549
1032.00,0.309589
1033.00,0.309655
1034.00,0.309713
1035.00,0.309743
1036.00,0.309754
1037.00,0.309762
1038.00,0.309774
1039.00,0.309788
1040.00,0.309801
1041.00,0.309811
1042.00,0.309820
1043.00,0.309832
1044.00,0.309849
1045.00,0.309866
1046.00,0.309881
1047.00,0.309889
1048.00,0.309891
1049.00,0.309886
1050.00,0.309878
1051.00,0.309874
1052.00,0.309880
1053.00,0.309901
1054.00,0.309935
1055.00,0.309977
1056.00,0.310021
1057.00,0.310056
1058.00,0.310071
1059.00,0.310063
1060.00,0.310043
1061.00,0.310026
1062.00,0.310022
1063.00,0.310030
1064.00,0.310045
1065.00,0.310066
1066.00,0.310089
1067.00,0.310110
1068.00,0.310127
1069.00,0.310144
1070.00,0.310164
1071.00,0.310188
1072.00,0.310217
1073.00,0.310247
1074.00,0.310279
1075.00,0.310305
1076.00,0.310322
1077.00,0.310328
1078.00,0.310334
1079.00,0.310351
1080.00,0.310386
1081.00,0.310430
1082.00,0.310473
1083.00,0.310508
1084.00,0.310540
1085.00,0.310572
1086.00,0.310609
1087.00,0.310646
1088.00,0.310679
1089.00,0.310705
1090.00,0.310728
1091.00,0.310750
1092.00,0.310771
1093.00,0.310793
1094.00,0.310815
1095.00,0.310836
1096.00,0.310859
1097.00,0.310886
1098.00,0.310920
1099.00,0.310960
1100.00,0.311006
1101.00,0.311056
1102.00,0.311100
1103.00,0.311125
1104.00,0.311133
1105.00,0.311143
1106.00,0.311181
1107.00,0.311256
1108.00,0.311342
1109.00,0.311408
1110.00,0.311439
1111.00,0.311448
1112.00,0.311455
1113.00,0.311473
1114.00,0.311500
1115.00,0.311532
1116.00,0.311566
1117.00,0.311603
1118.00,0.311642
1119.00,0.311683
1120.00,0.311729
1121.00,0.311778
1122.00,0.311831
1123.00,0.311882
1124.00,0.311929
1125.00,0.311969
1126.00,0.312010
1127.00,0.312057
1128.00,0.312116
1129.00,0.312183
1130.00,0.312251
1131.00,0.312317
1132.00,0.312380
1133.00,0.312439
1134.00,0.312495
1135.00,0.312551
1136.00,0.312613
1137.00,0.312680
1138.00,0.312748
1139.00,0.312807
1140.00,0.312854
1141.00,0.312895
1142.00,0.312939
1143.00,0.312987
1144.00,0.313038
1145.00,0.313085
1146.00,0.313125
1147.00,0.313163
1148.00,0.313202
1149.00,0.313246
1150.00,0.313292
1151.00,0.313337
1152.00,0.313381
1153.00,0.313423
1154.00,0.313464
1155.00,0.313505
1156.00,0.313546
1157.00,0.313588
1158.00,0.313631
1159.00,0.313672
1160.00,0.313709
1161.00,0.313743
1162.00,0.313774
1163.00,0.313805
1164.00,0.313838
1165.00,0.313873
1166.00,0.313909
1167.00,0.313944
1168.00,0.313980
1169.00,0.314014
1170.00,0.314048
1171.00,0.314084
1172.00,0.314127
1173.00,0.314178
1174.00,0.314230
1175.00,0.314279
1176.00,0.314318
1177.00,0.314351
1178.00,0.314379
1179.00,0.314408
1180.00,0.314438
1181.00,0.314473
1182.00,0.314515
1183.00,0.314558
1184.00,0.314596
1185.00,0.314626
1186.00,0.314655
1187.00,0.314687
1188.00,0.314728
1189.00,0.314776
1190.00,0.314828
1191.00,0.314882
1192.00,0.314933
1193.00,0.314975
1194.00,0.315006
1195.00,0.315031
1196.00,0.315056
1197.00,0.315085
1198.00,0.315117
1199.00,0.315149
1200.00,0.315180
1201.00,0.315213
1202.00,0.315247
1203.00,0.315285
1204.00,0.315326
1205.00,0.315371
1206.00,0.315419
1207.00,0.315469
1208.00,0.315518
1209.00,0.315566
1210.00,0.315611
1211.00,0.315656
1212.00,0.315699
1213.00,0.315740
1214.00,0.315779
1215.00,0.315814
1216.00,0.315850
1217.00,0.315888
1218.00,0.315929
1219.00,0.315972
1220.00,0.316015
1221.00,0.316057
1222.00,0.316095
1223.00,0.316128
1224.00,0.316157
1225.00,0.316187
1226.00,0.316225
1227.00,0.316274
1228.00,0.316326
1229.00,0.316376
1230.00,0.316416
1231.00,0.316452
1232.00,0.316488
1233.00,0.316525
1234.00,0.316564
1235.00,0.316603
1236.00,0.316642
1237.00,0.316679
1238.00,0.316715
1239.00,0.316750
1240.00,0.316786
1241.00,0.316825
1242.00,0.316868
1243.00,0.316912
1244.00,0.316957
1245.00,0.316999
1246.00,0.317040
1247.00,0.317077
1248.00,0.317113
1249.00,0.317147
1250.00,0.317182
1251.00,0.317218
1252.00,0.317258
1253.00,0.317305
1254.00,0.317358
1255.00,0.317412
1256.00,0.317460
1257.00,0.317498
1258.00,0.317531
1259.00,0.317561
1260.00,0.317593
1261.00,0.317626
1262.00,0.317662
1263.00,0.317699
1264.00,0.317740
1265.00,0.317784
1266.00,0.317832
1267.00,0.317878
1268.00,0.317920
1269.00,0.317954
1270.00,0.317984
1271.00,0.318013
1272.00,0.318045
1273.00,0.318080
1274.00,0.318117
1275.00,0.318157
1276.00,0.318197
1277.00,0.318234
1278.00,0.318269
1279.00,0.318302
1280.00,0.318337
1281.00,0.318376
1282.00,0.318417
1283.00,0.318462
1284.00,0.318507
1285.00,0.318551
1286.00,0.318590
1287.00,0.318622
1288.00,0.318651
1289.00,0.318680
1290.00,0.318712
1291.00,0.318748
1292.00,0.318794
1293.00,0.318846
1294.00,0.318900
1295.00,0.318948
1296.00,0.318987
1297.00,0.319020
1298.00,0.319051
1299.00,0.319083
1300.00,0.319118
1301.00,0.319155
1302.00,0.319196
1303.00,0.319240
1304.00,0.319286
1305.00,0.319330
1306.00,0.319373
1307.00,0.319413
1308.00,0.319448
1309.00,0.319485
1310.00,0.319527
1311.00,0.319576
1312.00,0.319631
1313.00,0.319688
1314.00,0.319742
1315.00,0.319795
1316.00,0.319844
1317.00,0.319889
1318.00,0.319930
1319.00,0.319964
1320.00,0.319993
1321.00,0.320021
1322.00,0.320051
1323.00,0.320087
1324.00,0.320128
1325.00,0.320172
1326.00,0.320218
1327.00,0.320265
1328.00,0.320310
1329.00,0.320352
1330.00,0.320391
1331.00,0.320426
1332.00,0.320458
1333.00,0.320488
1334.00,0.320520
1335.00,0.320555
1336.00,0.320591
1337.00,0.320625
1338.00,0.320656
1339.00,0.320684
1340.00,0.320711
1341.00,0.320739
1342.00,0.320769
1343.00,0.320804
1344.00,0.320844
1345.00,0.320886
1346.00,0.320926
1347.00,0.320964
1348.00,0.321000
1349.00,0.321039
1350.00,0.321083
1351.00,0.321131
1352.00,0.321180
1353.00,0.321230
1354.00,0.321279
1355.00,0.321324
1356.00,0.321365
1357.00,0.321402
1358.00,0.321432
1359.00,0.321458
1360.00,0.321481
1361.00,0.321504
1362.00,0.321527
1363.00,0.321548
1364.00,0.321564
1365.00,0.321573
1366.00,0.321574
1367.00,0.321569
1368.00,0.321559
1369.00,0.321545
1370.00,0.321530
1371.00,0.321514
1372.00,0.321495
1373.00,0.321473
1374.00,0.321446
1375.00,0.321413
1376.00,0.321375
1377.00,0.321332
1378.00,0.321287
1379.00,0.321241
1380.00,0.321195
1381.00,0.321142
1382.00,0.321075
1383.00,0.320993
1384.00,0.320898
1385.00,0.320796
1386.00,0.320691
1387.00,0.320580
1388.00,0.320459
1389.00,0.320327
1390.00,0.320185
1391.00,0.320035
1392.00,0.319878
1393.00,0.319713
1394.00,0.319536
1395.00,0.319349
1396.00,0.319152
1397.00,0.318946
1398.00,0.318735
1399.00,0.318519
1400.00,0.318301
1401.00,0.318080
1402.00,0.317856
1403.00,0.317632
1404.00,0.317406
1405.00,0.317184
1406.00,0.316970
1407.00,0.316769
1408.00,0.316582
1409.00,0.316413
1410.00,0.316266
1411.00,0.316147
1412.00,0.316062
1413.00,0.316015
1414.00,0.316004
1415.00,0.316025
1416.00,0.316076
1417.00,0.316153
1418.00,0.316252
1419.00,0.316372
1420.00,0.316509
1421.00,0.316660
1422.00,0.316822
1423.00,0.316991
1424.00,0.317160
1425.00,0.317328
1426.00,0.317496
1427.00,0.317667
1428.00,0.317839
1429.00,0.318007
1430.00,0.318162
1431.00,0.318304
1432.00,0.318437
1433.00,0.318570
1434.00,0.318707
1435.00,0.318845
1436.00,0.318975
1437.00,0.319095
1438.00,0.319208
1439.00,0.319315
1440.00,0.319421
1441.00,0.319527
1442.00,0.319636
1443.00,0.319747
1444.00,0.319857
1445.00,0.319963
1446.00,0.320063
1447.00,0.320158
1448.00,0.320248
1449.00,0.320336
1450.00,0.320422
1451.00,0.320508
1452.00,0.320592
1453.00,0.320675
1454.00,0.320756
1455.00,0.320834
1456.00,0.320913
1457.00,0.320998
1458.00,0.321090
1459.00,0.321186
1460.00,0.321282
1461.00,0.321374
1462.00,0.321466
1463.00,0.321560
1464.00,0.321656
1465.00,0.321754
1466.00,0.321853
1467.00,0.321953
1468.00,0.322055
1469.00,0.322162
1470.00,0.322274
1471.00,0.322389
1472.00,0.322503
1473.00,0.322614
1474.00,0.322728
1475.00,0.322846
1476.00,0.322971
1477.00,0.323100
1478.00,0.323229
1479.00,0.323358
1480.00,0.323487
1481.00,0.323619
1482.00,0.323758
1483.00,0.323897
1484.00,0.324036
1485.00,0.324170
1486.00,0.324301
1487.00,0.324428
1488.00,0.324553
1489.00,0.324676
1490.00,0.324798
1491.00,0.324920
1492.00,0.325043
1493.00,0.325166
1494.00,0.325290
1495.00,0.325415
1496.00,0.325538
1497.00,0.325659
1498.00,0.325780
1499.00,0.325898
1500.00,0.326015
1501.00,0.326133
1502.00,0.326254
1503.00,0.326380
1504.00,0.326509
1505.00,0.326638
1506.00,0.326767
1507.00,0.326893
1508.00,0.327018
1509.00,0.327138
1510.00,0.327256
1511.00,0.327371
1512.00,0.327487
1513.00,0.327603
1514.00,0.327723
1515.00,0.327846
1516.00,0.327972
1517.00,0.328096
1518.00,0.328218
1519.00,0.328336
1520.00,0.328452
1521.00,0.328566
1522.00,0.328679
1523.00,0.328788
1524.00,0.328897
1525.00,0.329004
1526.00,0.329112
1527.00,0.329220
1528.00,0.329328
1529.00,0.329433
1530.00,0.329534
1531.00,0.329637
1532.00,0.329745
1533.00,0.329860
1534.00,0.329980
1535.00,0.330100
1536.00,0.330220
1537.00,0.330340
1538.00,0.330460
1539.00,0.330582
1540.00,0.330700
1541.00,0.330811
1542.00,0.330913
1543.00,0.331014
1544.00,0.331119
1545.00,0.331232
1546.00,0.331348
1547.00,0.331462
1548.00,0.331569
1549.00,0.331672
1550.00,0.331771
1551.00,0.331869
1552.00,0.331966
1553.00,0.332061
1554.00,0.332157
1555.00,0.332253
1556.00,0.332351
1557.00,0.332453
1558.00,0.332557
1559.00,0.332660
1560.00,0.332762
1561.00,0.332861
1562.00,0.332958
