wavelength_nm,reflectance
350.00,0.019055
351.00,0.019056
352.00,0.018861
353.00,0.018666
354.00,0.018473
355.00,0.018285
356.00,0.018114
357.00,0.017977
358.00,0.017878
359.00,0.017791
360.00,0.017679
361.00,0.017522
362.00,0.017370
363.00,0.017292
364.00,0.017329
365.00,0.017419
366.00,0.017477
367.00,0.017440
368.00,0.017348
369.00,0.017265
370.00,0.017241
371.00,0.017266
372.00,0.017311
373.00,0.017357
374.00,0.017402
375.00,0.017451
376.00,0.017508
377.00,0.017573
378.00,0.017644
379.00,0.017719
380.00,0.017782
381.00,0.017818
382.00,0.017816
383.00,0.017791
384.00,0.017765
385.00,0.017755
386.00,0.017763
387.00,0.017787
388.00,0.017822
389.00,0.017854
390.00,0.017863
391.00,0.017834
392.00,0.017775
393.00,0.017696
394.00,0.017613
395.00,0.017550
396.00,0.017536
397.00,0.017584
398.00,0.017650
399.00,0.017674
400.00,0.017619
401.00,0.017531
402.00,0.017478
403.00,0.017508
404.00,0.017589
405.00,0.017666
406.00,0.017700
407.00,0.017703
408.00,0.017701
409.00,0.017714
410.00,0.017737
411.00,0.017762
412.00,0.017781
413.00,0.017807
414.00,0.017855
415.00,0.017935
416.00,0.018029
417.00,0.018114
418.00,0.018176
419.00,0.018223
420.00,0.018272
421.00,0.018338
422.00,0.018418
423.00,0.018509
424.00,0.018608
425.00,0.018711
426.00,0.018817
427.00,0.018926
428.00,0.019047
429.00,0.019194
430.00,0.019374
431.00,0.019577
432.00,0.019789
433.00,0.019997
434.00,0.020203
435.00,0.020410
436.00,0.020621
437.00,0.020836
438.00,0.021051
439.00,0.021266
440.00,0.021477
441.00,0.021684
442.00,0.021884
443.00,0.022083
444.00,0.022287
445.00,0.022499
446.00,0.022715
447.00,0.022926
448.00,0.023126
449.00,0.023312
450.00,0.023483
451.00,0.023639
452.00,0.023782
453.00,0.023912
454.00,0.024031
455.00,0.024136
456.00,0.024227
457.00,0.024303
458.00,0.024368
459.00,0.024430
460.00,0.024495
461.00,0.024559
462.00,0.024617
463.00,0.024665
464.00,0.024710
465.00,0.024756
466.00,0.024808
467.00,0.024868
468.00,0.024935
469.00,0.025007
470.00,0.025078
471.00,0.025140
472.00,0.025189
473.00,0.025237
474.00,0.025299
475.00,0.025387
476.00,0.025491
477.00,0.025602
478.00,0.025707
479.00,0.025810
480.00,0.025915
481.00,0.026026
482.00,0.026147
483.00,0.026283
484.00,0.026436
485.00,0.026605
486.00,0.026786
487.00,0.026976
488.00,0.027173
489.00,0.027374
490.00,0.027580
491.00,0.027796
492.00,0.028029
493.00,0.028284
494.00,0.028556
495.00,0.028837
496.00,0.029122
497.00,0.029418
498.00,0.029736
499.00,0.030082
500.00,0.030448
501.00,0.030820
502.00,0.031192
503.00,0.031572
504.00,0.031972
505.00,0.032402
506.00,0.032856
507.00,0.033326
508.00,0.033804
509.00,0.034290
510.00,0.034785
511.00,0.035291
512.00,0.035812
513.00,0.036355
514.00,0.036925
515.00,0.037519
516.00,0.038134
517.00,0.038768
518.00,0.039418
519.00,0.040087
520.00,0.040776
521.00,0.041488
522.00,0.042227
523.00,0.042996
524.00,0.043792
525.00,0.044611
526.00,0.045447
527.00,0.046306
528.00,0.047192
529.00,0.048109
530.00,0.049057
531.00,0.050031
532.00,0.051030
533.00,0.052053
534.00,0.053096
535.00,0.054160
536.00,0.055249
537.00,0.056366
538.00,0.057513
539.00,0.058688
540.00,0.059884
541.00,0.061101
542.00,0.062348
543.00,0.063639
544.00,0.064981
545.00,0.066347
546.00,0.067702
547.00,0.069021
548.00,0.070317
549.00,0.071611
550.00,0.072922
551.00,0.074255
552.00,0.075611
553.00,0.076993
554.00,0.078395
555.00,0.079810
556.00,0.081232
557.00,0.082655
558.00,0.084074
559.00,0.085485
560.00,0.086888
561.00,0.088281
562.00,0.089666
563.00,0.091038
564.00,0.092394
565.00,0.093731
566.00,0.095046
567.00,0.096338
568.00,0.097605
569.00,0.098845
570.00,0.100057
571.00,0.101240
572.00,0.102393
573.00,0.103516
574.00,0.104607
575.00,0.105662
576.00,0.106677
577.00,0.107648
578.00,0.108568
579.00,0.109436
580.00,0.110247
581.00,0.111011
582.00,0.111735
583.00,0.112428
584.00,0.113090
585.00,0.113716
586.00,0.114305
587.00,0.114855
588.00,0.115363
589.00,0.115831
590.00,0.116260
591.00,0.116656
592.00,0.117021
593.00,0.117358
594.00,0.117667
595.00,0.117951
596.00,0.118212
597.00,0.118451
598.00,0.118670
599.00,0.118869
600.00,0.119046
601.00,0.119200
602.00,0.119332
603.00,0.119443
604.00,0.119534
605.00,0.119611
606.00,0.119682
607.00,0.119751
608.00,0.119816
609.00,0.119874
610.00,0.119920
611.00,0.119956
612.00,0.119983
613.00,0.120001
614.00,0.120014
615.00,0.120023
616.00,0.120032
617.00,0.120040
618.00,0.120046
619.00,0.120052
620.00,0.120054
621.00,0.120053
622.00,0.120047
623.00,0.120035
624.00,0.120019
625.00,0.119997
626.00,0.119973
627.00,0.119949
628.00,0.119927
629.00,0.119905
630.00,0.119882
631.00,0.119855
632.00,0.119830
633.00,0.119812
634.00,0.119803
635.00,0.119805
636.00,0.119815
637.00,0.119833
638.00,0.119857
639.00,0.119884
640.00,0.119916
641.00,0.119949
642.00,0.119984
643.00,0.120019
644.00,0.120058
645.00,0.120104
646.00,0.120157
647.00,0.120219
648.00,0.120288
649.00,0.120364
650.00,0.120448
651.00,0.120539
652.00,0.120638
653.00,0.120746
654.00,0.120860
655.00,0.120982
656.00,0.121112
657.00,0.121250
658.00,0.121397
659.00,0.121552
660.00,0.121716
661.00,0.121888
662.00,0.122069
663.00,0.122263
664.00,0.122470
665.00,0.122690
666.00,0.122919
667.00,0.123155
668.00,0.123399
669.00,0.123651
670.00,0.123911
671.00,0.124179
672.00,0.124456
673.00,0.124741
674.00,0.125032
675.00,0.125329
676.00,0.125632
677.00,0.125944
678.00,0.126269
679.00,0.126609
680.00,0.126963
681.00,0.127327
682.00,0.127698
683.00,0.128078
684.00,0.128467
685.00,0.128869
686.00,0.129282
687.00,0.129706
688.00,0.130138
689.00,0.130581
690.00,0.131035
691.00,0.131499
692.00,0.131975
693.00,0.132460
694.00,0.132955
695.00,0.133457
696.00,0.133965
697.00,0.134479
698.00,0.134997
699.00,0.135519
700.00,0.136045
701.00,0.136580
702.00,0.137130
703.00,0.137698
704.00,0.138280
705.00,0.138866
706.00,0.139451
707.00,0.140037
708.00,0.140631
709.00,0.141237
710.00,0.141855
711.00,0.142481
712.00,0.143113
713.00,0.143751
714.00,0.144393
715.00,0.145038
716.00,0.145683
717.00,0.146326
718.00,0.146965
719.00,0.147602
720.00,0.148238
721.00,0.148875
722.00,0.149509
723.00,0.150136
724.00,0.150755
725.00,0.151371
726.00,0.151992
727.00,0.152623
728.00,0.153256
729.00,0.153883
730.00,0.154496
731.00,0.155098
732.00,0.155690
733.00,0.156276
734.00,0.156854
735.00,0.157422
736.00,0.157979
737.00,0.158522
738.00,0.159049
739.00,0.159558
740.00,0.160049
741.00,0.160524
742.00,0.160984
743.00,0.161427
744.00,0.161850
745.00,0.162251
746.00,0.162631
747.00,0.162988
748.00,0.163325
749.00,0.163643
750.00,0.163945
751.00,0.164234
752.00,0.164505
753.00,0.164755
754.00,0.164978
755.00,0.165175
756.00,0.165342
757.00,0.165481
758.00,0.165596
759.00,0.165693
760.00,0.165776
761.00,0.165844
762.00,0.165893
763.00,0.165921
764.00,0.165929
765.00,0.165917
766.00,0.165887
767.00,0.165832
768.00,0.165745
769.00,0.165622
770.00,0.165469
771.00,0.165297
772.00,0.165116
773.00,0.164928
774.00,0.164735
775.00,0.164535
776.00,0.164323
777.00,0.164088
778.00,0.163827
779.00,0.163544
780.00,0.163247
781.00,0.162944
782.00,0.162631
783.00,0.162305
784.00,0.161960
785.00,0.161601
786.00,0.161230
787.00,0.160851
788.00,0.160462
789.00,0.160058
790.00,0.159639
791.00,0.159209
792.00,0.158771
793.00,0.158331
794.00,0.157888
795.00,0.157440
796.00,0.156988
797.00,0.156535
798.00,0.156085
799.00,0.155639
800.00,0.155192
801.00,0.154733
802.00,0.154257
803.00,0.153769
804.00,0.153279
805.00,0.152794
806.00,0.152313
807.00,0.151834
808.00,0.151356
809.00,0.150878
810.00,0.150401
811.00,0.149923
812.00,0.149445
813.00,0.148968
814.00,0.148492
815.00,0.148015
816.00,0.147539
817.00,0.147064
818.00,0.146590
819.00,0.146122
820.00,0.145659
821.00,0.145203
822.00,0.144753
823.00,0.144309
824.00,0.143869
825.00,0.143434
826.00,0.143002
827.00,0.142571
828.00,0.142140
829.00,0.141709
830.00,0.141280
831.00,0.140856
832.00,0.140439
833.00,0.140028
834.00,0.139621
835.00,0.139216
836.00,0.138816
837.00,0.138423
838.00,0.138039
839.00,0.137662
840.00,0.137290
841.00,0.136920
842.00,0.136556
843.00,0.136202
844.00,0.135861
845.00,0.135529
846.00,0.135198
847.00,0.134866
848.00,0.134535
849.00,0.134212
850.00,0.133903
851.00,0.133603
852.00,0.133304
853.00,0.133002
854.00,0.132701
855.00,0.132404
856.00,0.132117
857.00,0.131839
858.00,0.131570
859.00,0.131309
860.00,0.131056
861.00,0.130809
862.00,0.130567
863.00,0.130331
864.00,0.130099
865.00,0.129872
866.00,0.129649
867.00,0.129429
868.00,0.129212
869.00,0.129000
870.00,0.128795
871.00,0.128600
872.00,0.128413
873.00,0.128231
874.00,0.128052
875.00,0.127876
876.00,0.127702
877.00,0.127531
878.00,0.127366
879.00,0.127211
880.00,0.127067
881.00,0.126932
882.00,0.126804
883.00,0.126679
884.00,0.126557
885.00,0.126437
886.00,0.126319
887.00,0.126208
888.00,0.126104
889.00,0.126011
890.00,0.125923
891.00,0.125833
892.00,0.125738
893.00,0.125642
894.00,0.125552
895.00,0.125475
896.00,0.125408
897.00,0.125348
898.00,0.125290
899.00,0.125237
900.00,0.125191
901.00,0.125153
902.00,0.125117
903.00,0.125079
904.00,0.125034
905.00,0.124987
906.00,0.124944
907.00,0.124913
908.00,0.124892
909.00,0.124880
910.00,0.124877
911.00,0.124876
912.00,0.124872
913.00,0.124859
914.00,0.124845
915.00,0.124839
916.00,0.124847
917.00,0.124867
918.00,0.124896
919.00,0.124931
920.00,0.124968
921.00,0.125005
922.00,0.125040
923.00,0.125073
924.00,0.125105
925.00,0.125137
926.00,0.125173
927.00,0.125214
928.00,0.125265
929.00,0.125321
930.00,0.125379
931.00,0.125436
932.00,0.125494
933.00,0.125557
934.00,0.125628
935.00,0.125702
936.00,0.125772
937.00,0.125834
938.00,0.125895
939.00,0.125963
940.00,0.126044
941.00,0.126132
942.00,0.126220
943.00,0.126303
944.00,0.126386
945.00,0.126479
946.00,0.126587
947.00,0.126706
948.00,0.126827
949.00,0.126945
950.00,0.127058
951.00,0.127165
952.00,0.127269
953.00,0.127376
954.00,0.127497
955.00,0.127637
956.00,0.127789
957.00,0.127942
958.00,0.128088
959.00,0.128229
960.00,0.128372
961.00,0.128522
962.00,0.128673
963.00,0.128818
964.00,0.128951
965.00,0.129081
966.00,0.129221
967.00,0.129378
968.00,0.129543
969.00,0.129704
970.00,0.129853
971.00,0.129996
972.00,0.130146
973.00,0.130309
974.00,0.130482
975.00,0.130654
976.00,0.130821
977.00,0.130989
978.00,0.131170
979.00,0.131370
980.00,0.131580
981.00,0.131787
982.00,0.131980
983.00,0.132163
984.00,0.132346
985.00,0.132535
986.00,0.132735
987.00,0.132950
988.00,0.133183
989.00,0.133425
990.00,0.133666
991.00,0.133899
992.00,0.134130
993.00,0.134367
994.00,0.134617
995.00,0.134872
996.00,0.135117
997.00,0.135346
998.00,0.135579
999.00,0.135844
1000.00,0.136158
1001.00,0.136509
1002.00,0.136877
1003.00,0.137242
1004.00,0.137587
1005.00,0.137909
1006.00,0.138208
1007.00,0.138491
1008.00,0.138774
1009.00,0.139079
1010.00,0.139426
1011.00,0.139797
1012.00,0.140169
1013.00,0.140521
1014.00,0.140845
1015.00,0.141143
1016.00,0.141418
1017.00,0.141699
1018.00,0.142021
1019.00,0.142410
1020.00,0.142822
1021.00,0.143192
1022.00,0.143474
1023.00,0.143713
1024.00,0.143989
1025.00,0.144363
1026.00,0.144797
1027.00,0.145219
1028.00,0.145575
1029.00,0.145895
1030.00,0.146242
1031.00,0.146664
1032.00,0.147133
1033.00,0.147598
1034.00,0.148019
1035.00,0.148408
1036.00,0.148794
1037.00,0.149203
1038.00,0.149630
1039.00,0.150061
1040.00,0.150485
1041.00,0.150900
1042.00,0.151311
1043.00,0.151721
1044.00,0.152140
1045.00,0.152578
1046.00,0.153041
1047.00,0.153522
1048.00,0.154009
1049.00,0.154490
1050.00,0.154963
1051.00,0.155429
1052.00,0.155888
1053.00,0.156348
1054.00,0.156815
1055.00,0.157298
1056.00,0.157792
1057.00,0.158292
1058.00,0.158795
1059.00,0.159307
1060.00,0.159838
1061.00,0.160393
1062.00,0.160966
1063.00,0.161544
1064.00,0.162115
1065.00,0.162681
1066.00,0.163246
1067.00,0.163815
1068.00,0.164388
1069.00,0.164966
1070.00,0.165548
1071.00,0.166134
1072.00,0.166725
1073.00,0.167320
1074.00,0.167921
1075.00,0.168527
1076.00,0.169139
1077.00,0.169762
1078.00,0.170402
1079.00,0.171060
1080.00,0.171733
1081.00,0.172413
1082.00,0.173092
1083.00,0.173771
1084.00,0.174454
1085.00,0.175142
1086.00,0.175841
1087.00,0.176557
1088.00,0.177294
1089.00,0.178040
1090.00,0.178780
1091.00,0.179502
1092.00,0.180214
1093.00,0.180930
1094.00,0.181661
1095.00,0.182407
1096.00,0.183161
1097.00,0.183921
1098.00,0.184684
1099.00,0.185452
1100.00,0.186225
1101.00,0.187005
1102.00,0.187792
1103.00,0.188591
1104.00,0.189402
1105.00,0.190229
1106.00,0.191074
1107.00,0.191924
1108.00,0.192764
1109.00,0.193582
1110.00,0.194390
1111.00,0.195206
1112.00,0.196045
1113.00,0.196904
1114.00,0.197773
1115.00,0.198643
1116.00,0.199518
1117.00,0.200408
1118.00,0.201317
1119.00,0.202239
1120.00,0.203160
1121.00,0.204070
1122.00,0.204977
1123.00,0.205892
1124.00,0.206824
1125.00,0.207772
1126.00,0.208729
1127.00,0.209687
1128.00,0.210648
1129.00,0.211614
1130.00,0.212586
1131.00,0.213561
1132.00,0.214537
1133.00,0.215512
1134.00,0.216484
1135.00,0.217454
1136.00,0.218423
1137.00,0.219395
1138.00,0.220374
1139.00,0.221364
1140.00,0.222363
1141.00,0.223365
1142.00,0.224366
1143.00,0.225371
1144.00,0.226387
1145.00,0.227420
1146.00,0.228467
1147.00,0.229520
1148.00,0.230573
1149.00,0.231622
1150.00,0.232664
1151.00,0.233695
1152.00,0.234722
1153.00,0.235754
1154.00,0.236797
1155.00,0.237848
1156.00,0.238900
1157.00,0.239948
1158.00,0.240992
1159.00,0.242034
1160.00,0.243075
1161.00,0.244115
1162.00,0.245152
1163.00,0.246186
1164.00,0.247217
1165.00,0.248247
1166.00,0.249279
1167.00,0.250312
1168.00,0.251344
1169.00,0.252375
1170.00,0.253405
1171.00,0.254434
1172.00,0.255464
1173.00,0.256495
1174.00,0.257530
1175.00,0.258569
1176.00,0.259609
1177.00,0.260647
1178.00,0.261681
1179.00,0.262711
1180.00,0.263740
1181.00,0.264771
1182.00,0.265802
1183.00,0.266829
1184.00,0.267851
1185.00,0.268868
1186.00,0.269885
1187.00,0.270902
1188.00,0.271916
1189.00,0.272919
1190.00,0.273907
1191.00,0.274879
1192.00,0.275838
1193.00,0.276786
1194.00,0.277726
1195.00,0.278663
1196.00,0.279598
1197.00,0.280536
1198.00,0.281476
1199.00,0.282420
1200.00,0.283367
1201.00,0.284313
1202.00,0.285254
1203.00,0.286188
1204.00,0.287110
1205.00,0.288019
1206.00,0.288917
1207.00,0.289808
1208.00,0.290697
1209.00,0.291581
1210.00,0.292459
1211.00,0.293328
1212.00,0.294188
1213.00,0.295041
1214.00,0.295887
1215.00,0.296728
1216.00,0.297560
1217.00,0.298383
1218.00,0.299196
1219.00,0.300000
1220.00,0.300794
1221.00,0.301582
1222.00,0.302366
1223.00,0.303148
1224.00,0.303925
1225.00,0.304692
1226.00,0.305444
1227.00,0.306182
1228.00,0.306909
1229.00,0.307626
1230.00,0.308336
1231.00,0.309039
1232.00,0.309739
1233.00,0.310431
1234.00,0.311112
1235.00,0.311780
1236.00,0.312437
1237.00,0.313087
1238.00,0.313732
1239.00,0.314373
1240.00,0.315010
1241.00,0.315644
1242.00,0.316270
1243.00,0.316884
1244.00,0.317483
1245.00,0.318068
1246.00,0.318642
1247.00,0.319209
1248.00,0.319770
1249.00,0.320325
1250.00,0.320876
1251.00,0.321422
1252.00,0.321961
1253.00,0.322491
1254.00,0.323011
1255.00,0.323520
1256.00,0.324017
1257.00,0.324505
1258.00,0.324985
1259.00,0.325462
1260.00,0.325932
1261.00,0.326393
1262.00,0.326843
1263.00,0.327285
1264.00,0.327724
1265.00,0.328165
1266.00,0.328605
1267.00,0.329039
1268.00,0.329462
1269.00,0.329877
1270.00,0.330291
1271.00,0.330707
1272.00,0.331123
1273.00,0.331535
1274.00,0.331937
1275.00,0.332329
1276.00,0.332709
1277.00,0.333075
1278.00,0.333431
1279.00,0.333783
1280.00,0.334133
1281.00,0.334483
1282.00,0.334832
1283.00,0.335179
1284.00,0.335523
1285.00,0.335858
1286.00,0.336182
1287.00,0.336495
1288.00,0.336798
1289.00,0.337092
1290.00,0.337380
1291.00,0.337665
1292.00,0.337949
1293.00,0.338232
1294.00,0.338513
1295.00,0.338790
1296.00,0.339063
1297.00,0.339329
1298.00,0.339586
1299.00,0.339836
1300.00,0.340082
1301.00,0.340323
1302.00,0.340564
1303.00,0.340805
1304.00,0.341047
1305.00,0.341284
1306.00,0.341509
1307.00,0.341717
1308.00,0.341917
1309.00,0.342119
1310.00,0.342333
1311.00,0.342555
1312.00,0.342775
1313.00,0.342985
1314.00,0.343186
1315.00,0.343379
1316.00,0.343568
1317.00,0.343754
1318.00,0.343938
1319.00,0.344120
1320.00,0.344303
1321.00,0.344485
1322.00,0.344669
1323.00,0.344852
1324.00,0.345033
1325.00,0.345208
1326.00,0.345380
1327.00,0.345548
1328.00,0.345714
1329.00,0.345875
1330.00,0.346031
1331.00,0.346180
1332.00,0.346325
1333.00,0.346469
1334.00,0.346618
1335.00,0.346768
1336.00,0.346920
1337.00,0.347069
1338.00,0.347215
1339.00,0.347355
1340.00,0.347489
1341.00,0.347619
1342.00,0.347747
1343.00,0.347876
1344.00,0.348006
1345.00,0.348141
1346.00,0.348280
1347.00,0.348420
1348.00,0.348556
1349.00,0.348684
1350.00,0.348809
1351.00,0.348937
1352.00,0.349074
1353.00,0.349218
1354.00,0.349361
1355.00,0.349499
1356.00,0.349632
1357.00,0.349762
1358.00,0.349890
1359.00,0.350017
1360.00,0.350140
1361.00,0.350257
1362.00,0.350371
1363.00,0.350486
1364.00,0.350602
1365.00,0.350717
1366.00,0.350825
1367.00,0.350924
1368.00,0.351018
1369.00,0.351116
1370.00,0.351225
1371.00,0.351338
1372.00,0.351443
1373.00,0.351531
1374.00,0.351609
1375.00,0.351687
1376.00,0.351774
1377.00,0.351868
1378.00,0.351961
1379.00,0.352048
1380.00,0.352131
1381.00,0.352213
1382.00,0.352299
1383.00,0.352383
1384.00,0.352462
1385.00,0.352530
1386.00,0.352592
1387.00,0.352658
1388.00,0.352731
1389.00,0.352808
1390.00,0.352878
1391.00,0.352934
1392.00,0.352975
1393.00,0.353003
1394.00,0.353021
1395.00,0.353035
1396.00,0.353051
1397.00,0.353073
1398.00,0.353098
1399.00,0.353115
1400.00,0.353120
1401.00,0.353116
1402.00,0.353112
1403.00,0.353116
1404.00,0.353124
1405.00,0.353130
1406.00,0.353127
1407.00,0.353117
1408.00,0.353101
1409.00,0.353080
1410.00,0.353060
1411.00,0.353043
1412.00,0.353032
1413.00,0.353027
1414.00,0.353026
1415.00,0.353025
1416.00,0.353027
1417.00,0.353031
1418.00,0.353038
1419.00,0.353046
1420.00,0.353052
1421.00,0.353055
1422.00,0.353058
1423.00,0.353067
1424.00,0.353084
1425.00,0.353110
1426.00,0.353141
1427.00,0.353174
1428.00,0.353207
1429.00,0.353242
1430.00,0.353278
1431.00,0.353317
1432.00,0.353360
1433.00,0.353411
1434.00,0.353463
1435.00,0.353513
1436.00,0.353557
1437.00,0.353597
1438.00,0.353640
1439.00,0.353690
1440.00,0.353748
1441.00,0.353809
1442.00,0.353872
1443.00,0.353937
1444.00,0.354009
1445.00,0.354089
1446.00,0.354175
1447.00,0.354261
1448.00,0.354344
1449.00,0.354421
1450.00,0.354492
1451.00,0.354556
1452.00,0.354621
1453.00,0.354691
1454.00,0.354775
1455.00,0.354867
1456.00,0.354959
1457.00,0.355045
1458.00,0.355125
1459.00,0.355201
1460.00,0.355274
1461.00,0.355345
1462.00,0.355412
1463.00,0.355476
1464.00,0.355538
1465.00,0.355599
1466.00,0.355661
1467.00,0.355724
1468.00,0.355785
1469.00,0.355845
1470.00,0.355907
1471.00,0.355978
1472.00,0.356062
1473.00,0.356155
1474.00,0.356250
1475.00,0.356343
1476.00,0.356434
1477.00,0.356522
1478.00,0.356612
1479.00,0.356704
1480.00,0.356801
1481.00,0.356904
1482.00,0.357008
1483.00,0.357105
1484.00,0.357190
1485.00,0.357264
1486.00,0.357333
1487.00,0.357401
1488.00,0.357471
1489.00,0.357547
1490.00,0.357629
1491.00,0.357715
1492.00,0.357797
1493.00,0.357871
1494.00,0.357940
