wavelength_nm,reflectance
350.00,0.044149
351.00,0.044152
352.00,0.044090
353.00,0.044086
354.00,0.044198
355.00,0.044453
356.00,0.044750
357.00,0.044955
358.00,0.044981
359.00,0.044916
360.00,0.044893
361.00,0.045008
362.00,0.045216
363.00,0.045435
364.00,0.045599
365.00,0.045707
366.00,0.045771
367.00,0.045812
368.00,0.045874
369.00,0.046005
370.00,0.046234
371.00,0.046502
372.00,0.046728
373.00,0.046857
374.00,0.046936
375.00,0.047036
376.00,0.047215
377.00,0.047461
378.00,0.047749
379.00,0.048052
380.00,0.048342
381.00,0.048591
382.00,0.048786
383.00,0.048969
384.00,0.049202
385.00,0.049522
386.00,0.049894
387.00,0.050261
388.00,0.050581
389.00,0.050866
390.00,0.051141
391.00,0.051429
392.00,0.051740
393.00,0.052079
394.00,0.052446
395.00,0.052820
396.00,0.053172
397.00,0.053482
398.00,0.053763
399.00,0.054034
400.00,0.054312
401.00,0.054599
402.00,0.054889
403.00,0.055179
404.00,0.055467
405.00,0.055749
406.00,0.056026
407.00,0.056302
408.00,0.056585
409.00,0.056879
410.00,0.057182
411.00,0.057487
412.00,0.057790
413.00,0.058092
414.00,0.058394
415.00,0.058697
416.00,0.058998
417.00,0.059296
418.00,0.059588
419.00,0.059878
420.00,0.060169
421.00,0.060466
422.00,0.060766
423.00,0.061066
424.00,0.061366
425.00,0.061665
426.00,0.061965
427.00,0.062270
428.00,0.062580
429.00,0.062897
430.00,0.063222
431.00,0.063553
432.00,0.063886
433.00,0.064217
434.00,0.064542
435.00,0.064854
436.00,0.065153
437.00,0.065446
438.00,0.065743
439.00,0.066052
440.00,0.066368
441.00,0.066684
442.00,0.066995
443.00,0.067301
444.00,0.067606
445.00,0.067910
446.00,0.068216
447.00,0.068524
448.00,0.068836
449.00,0.069147
450.00,0.069454
451.00,0.069755
452.00,0.070052
453.00,0.070348
454.00,0.070645
455.00,0.070943
456.00,0.071240
457.00,0.071533
458.00,0.071821
459.00,0.072102
460.00,0.072377
461.00,0.072647
462.00,0.072914
463.00,0.073182
464.00,0.073448
465.00,0.073711
466.00,0.073970
467.00,0.074226
468.00,0.074484
469.00,0.074746
470.00,0.075008
471.00,0.075265
472.00,0.075515
473.00,0.075760
474.00,0.076003
475.00,0.076247
476.00,0.076494
477.00,0.076744
478.00,0.076997
479.00,0.077250
480.00,0.077502
481.00,0.077750
482.00,0.077996
483.00,0.078240
484.00,0.078485
485.00,0.078734
486.00,0.078990
487.00,0.079258
488.00,0.079531
489.00,0.079805
490.00,0.080074
491.00,0.080340
492.00,0.080606
493.00,0.080875
494.00,0.081146
495.00,0.081418
496.00,0.081690
497.00,0.081962
498.00,0.082234
499.00,0.082508
500.00,0.082784
501.00,0.083065
502.00,0.083351
503.00,0.083642
504.00,0.083933
505.00,0.084224
506.00,0.084513
507.00,0.084801
508.00,0.085086
509.00,0.085370
510.00,0.085653
511.00,0.085937
512.00,0.086222
513.00,0.086509
514.00,0.086800
515.00,0.087094
516.00,0.087393
517.00,0.087696
518.00,0.088004
519.00,0.088313
520.00,0.088624
521.00,0.088937
522.00,0.089251
523.00,0.089568
524.00,0.089888
525.00,0.090212
526.00,0.090540
527.00,0.090873
528.00,0.091210
529.00,0.091550
530.00,0.091892
531.00,0.092235
532.00,0.092579
533.00,0.092925
534.00,0.093276
535.00,0.093632
536.00,0.093993
537.00,0.094357
538.00,0.094723
539.00,0.095095
540.00,0.095474
541.00,0.095863
542.00,0.096261
543.00,0.096664
544.00,0.097071
545.00,0.097482
546.00,0.097897
547.00,0.098318
548.00,0.098745
549.00,0.099181
550.00,0.099627
551.00,0.100080
552.00,0.100539
553.00,0.101002
554.00,0.101467
555.00,0.101935
556.00,0.102405
557.00,0.102881
558.00,0.103365
559.00,0.103859
560.00,0.104359
561.00,0.104862
562.00,0.105362
563.00,0.105860
564.00,0.106355
565.00,0.106849
566.00,0.107344
567.00,0.107840
568.00,0.108339
569.00,0.108838
570.00,0.109335
571.00,0.109826
572.00,0.110312
573.00,0.110795
574.00,0.111274
575.00,0.111750
576.00,0.112223
577.00,0.112693
578.00,0.113158
579.00,0.113614
580.00,0.114059
581.00,0.114497
582.00,0.114930
583.00,0.115361
584.00,0.115787
585.00,0.116206
586.00,0.116613
587.00,0.117010
588.00,0.117400
589.00,0.117785
590.00,0.118163
591.00,0.118535
592.00,0.118898
593.00,0.119256
594.00,0.119608
595.00,0.119957
596.00,0.120301
597.00,0.120636
598.00,0.120961
599.00,0.121284
600.00,0.121611
601.00,0.121947
602.00,0.122287
603.00,0.122622
604.00,0.122947
605.00,0.123263
606.00,0.123571
607.00,0.123876
608.00,0.124178
609.00,0.124477
610.00,0.124774
611.00,0.125069
612.00,0.125364
613.00,0.125659
614.00,0.125954
615.00,0.126249
616.00,0.126546
617.00,0.126846
618.00,0.127151
619.00,0.127463
620.00,0.127779
621.00,0.128097
622.00,0.128413
623.00,0.128728
624.00,0.129043
625.00,0.129360
626.00,0.129677
627.00,0.129994
628.00,0.130310
629.00,0.130625
630.00,0.130943
631.00,0.131263
632.00,0.131586
633.00,0.131911
634.00,0.132236
635.00,0.132559
636.00,0.132881
637.00,0.133199
638.00,0.133518
639.00,0.133841
640.00,0.134170
641.00,0.134502
642.00,0.134830
643.00,0.135151
644.00,0.135465
645.00,0.135777
646.00,0.136090
647.00,0.136404
648.00,0.136721
649.00,0.137040
650.00,0.137364
651.00,0.137694
652.00,0.138029
653.00,0.138364
654.00,0.138691
655.00,0.139007
656.00,0.139316
657.00,0.139626
658.00,0.139945
659.00,0.140270
660.00,0.140598
661.00,0.140925
662.00,0.141248
663.00,0.141564
664.00,0.141872
665.00,0.142176
666.00,0.142482
667.00,0.142795
668.00,0.143113
669.00,0.143432
670.00,0.143750
671.00,0.144069
672.00,0.144391
673.00,0.144720
674.00,0.145055
675.00,0.145395
676.00,0.145738
677.00,0.146086
678.00,0.146440
679.00,0.146800
680.00,0.147167
681.00,0.147540
682.00,0.147920
683.00,0.148302
684.00,0.148682
685.00,0.149058
686.00,0.149436
687.00,0.149828
688.00,0.150239
689.00,0.150667
690.00,0.151108
691.00,0.151555
692.00,0.152007
693.00,0.152459
694.00,0.152909
695.00,0.153359
696.00,0.153811
697.00,0.154267
698.00,0.154723
699.00,0.155177
700.00,0.155626
701.00,0.156069
702.00,0.156509
703.00,0.156944
704.00,0.157377
705.00,0.157807
706.00,0.158233
707.00,0.158656
708.00,0.159075
709.00,0.159488
710.00,0.159899
711.00,0.160309
712.00,0.160719
713.00,0.161121
714.00,0.161503
715.00,0.161861
716.00,0.162210
717.00,0.162569
718.00,0.162952
719.00,0.163351
720.00,0.163748
721.00,0.164132
722.00,0.164508
723.00,0.164882
724.00,0.165262
725.00,0.165645
726.00,0.166026
727.00,0.166404
728.00,0.166781
729.00,0.167161
730.00,0.167547
731.00,0.167938
732.00,0.168329
733.00,0.168718
734.00,0.169102
735.00,0.169478
736.00,0.169844
737.00,0.170204
738.00,0.170562
739.00,0.170921
740.00,0.171281
741.00,0.171641
742.00,0.172001
743.00,0.172360
744.00,0.172716
745.00,0.173070
746.00,0.173420
747.00,0.173766
748.00,0.174109
749.00,0.174451
750.00,0.174796
751.00,0.175145
752.00,0.175497
753.00,0.175850
754.00,0.176201
755.00,0.176543
756.00,0.176870
757.00,0.177178
758.00,0.177479
759.00,0.177785
760.00,0.178108
761.00,0.178448
762.00,0.178801
763.00,0.179164
764.00,0.179530
765.00,0.179893
766.00,0.180248
767.00,0.180597
768.00,0.180942
769.00,0.181288
770.00,0.181635
771.00,0.181981
772.00,0.182326
773.00,0.182668
774.00,0.183004
775.00,0.183333
776.00,0.183659
777.00,0.183988
778.00,0.184326
779.00,0.184668
780.00,0.185011
781.00,0.185350
782.00,0.185686
783.00,0.186020
784.00,0.186353
785.00,0.186685
786.00,0.187012
787.00,0.187336
788.00,0.187659
789.00,0.187987
790.00,0.188323
791.00,0.188663
792.00,0.189003
793.00,0.189338
794.00,0.189669
795.00,0.189995
796.00,0.190319
797.00,0.190640
798.00,0.190959
799.00,0.191278
800.00,0.191599
801.00,0.191923
802.00,0.192252
803.00,0.192582
804.00,0.192909
805.00,0.193229
806.00,0.193543
807.00,0.193853
808.00,0.194158
809.00,0.194459
810.00,0.194752
811.00,0.195036
812.00,0.195318
813.00,0.195603
814.00,0.195897
815.00,0.196201
816.00,0.196510
817.00,0.196824
818.00,0.197138
819.00,0.197449
820.00,0.197754
821.00,0.198054
822.00,0.198351
823.00,0.198647
824.00,0.198942
825.00,0.199237
826.00,0.199534
827.00,0.199832
828.00,0.200135
829.00,0.200441
830.00,0.200745
831.00,0.201041
832.00,0.201324
833.00,0.201601
834.00,0.201882
835.00,0.202174
836.00,0.202470
837.00,0.202763
838.00,0.203046
839.00,0.203325
840.00,0.203605
841.00,0.203893
842.00,0.204185
843.00,0.204477
844.00,0.204764
845.00,0.205042
846.00,0.205305
847.00,0.205552
848.00,0.205795
849.00,0.206053
850.00,0.206334
851.00,0.206626
852.00,0.206906
853.00,0.207160
854.00,0.207401
855.00,0.207647
856.00,0.207911
857.00,0.208188
858.00,0.208467
859.00,0.208740
860.00,0.209008
861.00,0.209272
862.00,0.209536
863.00,0.209797
864.00,0.210055
865.00,0.210309
866.00,0.210561
867.00,0.210814
868.00,0.211072
869.00,0.211335
870.00,0.211602
871.00,0.211872
872.00,0.212136
873.00,0.212386
874.00,0.212616
875.00,0.212838
876.00,0.213066
877.00,0.213313
878.00,0.213572
879.00,0.213832
880.00,0.214085
881.00,0.214337
882.00,0.214596
883.00,0.214867
884.00,0.215142
885.00,0.215410
886.00,0.215662
887.00,0.215906
888.00,0.216154
889.00,0.216413
890.00,0.216671
891.00,0.216915
892.00,0.217135
893.00,0.217345
894.00,0.217563
895.00,0.217803
896.00,0.218056
897.00,0.218308
898.00,0.218548
899.00,0.218782
900.00,0.219018
901.00,0.219264
902.00,0.219525
903.00,0.219802
904.00,0.220095
905.00,0.220392
906.00,0.220676
907.00,0.220934
908.00,0.221170
909.00,0.221392
910.00,0.221609
911.00,0.221829
912.00,0.222060
913.00,0.222307
914.00,0.222564
915.00,0.222820
916.00,0.223068
917.00,0.223311
918.00,0.223554
919.00,0.223803
920.00,0.224066
921.00,0.224351
922.00,0.224662
923.00,0.224976
924.00,0.225266
925.00,0.225512
926.00,0.225726
927.00,0.225928
928.00,0.226135
929.00,0.226349
930.00,0.226571
931.00,0.226800
932.00,0.227036
933.00,0.227279
934.00,0.227529
935.00,0.227786
936.00,0.228049
937.00,0.228318
938.00,0.228593
939.00,0.228875
940.00,0.229162
941.00,
942.00,
943.00,
944.00,
945.00,
946.00,
947.00,
948.00,
949.00,
950.00,
951.00,
952.00,
953.00,
954.00,
955.00,
956.00,
957.00,
958.00,
959.00,
960.00,
961.00,
962.00,
963.00,
964.00,
965.00,
966.00,
967.00,
968.00,
969.00,
970.00,
971.00,
972.00,
973.00,
974.00,
975.00,
976.00,
977.00,
978.00,
979.00,
980.00,
981.00,
982.00,
983.00,
984.00,
985.00,
986.00,
987.00,
988.00,
989.00,
990.00,
991.00,
992.00,
993.00,
994.00,
995.00,
996.00,
997.00,
998.00,
999.00,
1000.00,
1001.00,
1002.00,
1003.00,
1004.00,
1005.00,0.251493
1006.00,0.251761
1007.00,0.252024
1008.00,0.252279
1009.00,0.252528
1010.00,0.252770
1011.00,0.253005
1012.00,0.253233
1013.00,0.253454
1014.00,0.253667
1015.00,0.253873
1016.00,0.254069
1017.00,0.254254
1018.00,0.254424
1019.00,0.254581
1020.00,0.254735
1021.00,0.254900
1022.00,0.255079
1023.00,0.255250
1024.00,0.255390
1025.00,0.255491
1026.00,0.255579
1027.00,0.255687
1028.00,0.255833
1029.00,0.256009
1030.00,0.256203
1031.00,0.256402
1032.00,0.256591
1033.00,0.256754
1034.00,0.256888
1035.00,0.257016
1036.00,0.257163
1037.00,0.257344
1038.00,0.257548
1039.00,0.257759
1040.00,0.257964
1041.00,0.258151
1042.00,0.258308
1043.00,0.258434
1044.00,0.258547
1045.00,0.258673
1046.00,0.258824
1047.00,0.259001
1048.00,0.259199
1049.00,0.259408
1050.00,0.259607
1051.00,0.259769
1052.00,0.259889
1053.00,0.259997
1054.00,0.260130
1055.00,0.260307
1056.00,0.260505
1057.00,0.260694
1058.00,0.260859
1059.00,0.261007
1060.00,0.261149
1061.00,0.261295
1062.00,0.261454
1063.00,0.261634
1064.00,0.261833
1065.00,0.262033
1066.00,0.262212
1067.00,0.262361
1068.00,0.262496
1069.00,0.262636
1070.00,0.262793
1071.00,0.262963
1072.00,0.263139
1073.00,0.263313
1074.00,0.263480
1075.00,0.263633
1076.00,0.263773
1077.00,0.263912
1078.00,0.264067
1079.00,0.264243
1080.00,0.264432
1081.00,0.264619
1082.00,0.264797
1083.00,0.264968
1084.00,0.265136
1085.00,0.265302
1086.00,0.265462
1087.00,0.265608
1088.00,0.265741
1089.00,0.265878
1090.00,0.266038
1091.00,0.266229
1092.00,0.266435
1093.00,0.266637
1094.00,0.266823
1095.00,0.266994
1096.00,0.267152
1097.00,0.267301
1098.00,0.267448
1099.00,0.267601
1100.00,0.267762
1101.00,0.267934
1102.00,0.268115
1103.00,0.268301
1104.00,0.268479
1105.00,0.268636
1106.00,0.268770
1107.00,0.268908
1108.00,0.269083
1109.00,0.269307
1110.00,0.269556
1111.00,0.269797
1112.00,0.270011
1113.00,0.270202
1114.00,0.270379
1115.00,0.270554
1116.00,0.270749
1117.00,0.270990
1118.00,0.271280
1119.00,0.271578
1120.00,0.271838
1121.00,0.272031
1122.00,0.272170
1123.00,0.272275
1124.00,0.272364
1125.00,0.272452
1126.00,0.272556
1127.00,0.272682
1128.00,0.272818
1129.00,0.272950
1130.00,0.273068
1131.00,0.273179
1132.00,0.273288
1133.00,0.273398
1134.00,0.273500
1135.00,0.273583
1136.00,0.273643
1137.00,0.273692
1138.00,0.273747
1139.00,0.273819
1140.00,0.273919
1141.00,0.274059
1142.00,0.274235
1143.00,0.274419
1144.00,0.274581
1145.00,0.274698
1146.00,0.274776
1147.00,0.274825
1148.00,0.274853
1149.00,0.274869
1150.00,0.274882
1151.00,0.274901
1152.00,0.274933
1153.00,0.274987
1154.00,0.275063
1155.00,0.275147
1156.00,0.275222
1157.00,0.275280
1158.00,0.275333
1159.00,0.275393
1160.00,0.275472
1161.00,0.275567
1162.00,0.275679
1163.00,0.275803
1164.00,0.275929
1165.00,0.276046
1166.00,0.276149
1167.00,0.276245
1168.00,0.276343
1169.00,0.276451
1170.00,0.276568
1171.00,0.276696
1172.00,0.276831
1173.00,0.276962
1174.00,0.277076
1175.00,0.277171
1176.00,0.277258
1177.00,0.277352
1178.00,0.277463
1179.00,0.277588
1180.00,0.277718
1181.00,0.277849
1182.00,0.277971
1183.00,0.278076
1184.00,0.278162
1185.00,0.278241
1186.00,0.278330
1187.00,0.278437
1188.00,0.278557
1189.00,0.278683
1190.00,0.278808
1191.00,0.278932
1192.00,0.279051
1193.00,0.279166
1194.00,0.279282
1195.00,0.279402
1196.00,0.279529
1197.00,0.279663
1198.00,0.279799
1199.00,0.279937
1200.00,0.280075
1201.00,0.280212
1202.00,0.280348
1203.00,0.280487
1204.00,0.280635
1205.00,0.280795
1206.00,0.280960
1207.00,0.281123
1208.00,0.281283
1209.00,0.281441
1210.00,0.281601
1211.00,0.281768
1212.00,0.281939
1213.00,0.282117
1214.00,0.282299
1215.00,0.282485
1216.00,0.282675
1217.00,0.282867
1218.00,0.283060
1219.00,0.283252
1220.00,0.283444
1221.00,0.283638
1222.00,0.283839
1223.00,0.284049
1224.00,0.284268
1225.00,0.284496
1226.00,0.284731
1227.00,0.284964
1228.00,0.285186
1229.00,0.285393
1230.00,0.285599
1231.00,0.285817
1232.00,0.286056
1233.00,0.286301
1234.00,0.286539
1235.00,0.286761
1236.00,0.286970
1237.00,0.287174
1238.00,0.287375
1239.00,0.287575
1240.00,0.287774
1241.00,0.287974
1242.00,0.288178
1243.00,0.288392
1244.00,0.288616
1245.00,0.288841
1246.00,0.289056
1247.00,0.289255
1248.00,0.289444
1249.00,0.289628
1250.00,0.289813
1251.00,0.290003
1252.00,0.290201
1253.00,0.290406
1254.00,0.290613
1255.00,0.290815
1256.00,0.291010
1257.00,0.291208
1258.00,0.291422
1259.00,0.291641
1260.00,0.291813
1261.00,0.291878
1262.00,0.291823
1263.00,0.291742
1264.00,0.291745
1265.00,0.291897
1266.00,0.292166
1267.00,0.292509
1268.00,0.292883
1269.00,0.293253
1270.00,0.293584
1271.00,0.293857
1272.00,0.294083
1273.00,0.294279
1274.00,0.294458
1275.00,0.294630
1276.00,0.294803
1277.00,0.294982
1278.00,0.295168
1279.00,0.295361
1280.00,0.295561
1281.00,0.295761
1282.00,0.295958
1283.00,0.296149
1284.00,0.296335
1285.00,0.296519
1286.00,0.296704
1287.00,0.296890
1288.00,0.297079
1289.00,0.297267
1290.00,0.297452
1291.00,0.297628
1292.00,0.297796
1293.00,0.297964
1294.00,0.298145
1295.00,0.298340
1296.00,0.298535
1297.00,0.298711
1298.00,0.298860
1299.00,0.298998
1300.00,0.299146
1301.00,0.299311
1302.00,0.299484
1303.00,0.299648
1304.00,0.299798
1305.00,0.299946
1306.00,0.300106
1307.00,0.300285
1308.00,0.300464
1309.00,0.300625
1310.00,0.300757
1311.00,0.300876
1312.00,0.301003
1313.00,0.301147
1314.00,0.301298
1315.00,0.301443
1316.00,0.301574
1317.00,0.301699
1318.00,0.301824
1319.00,0.301954
1320.00,0.302084
1321.00,0.302210
1322.00,0.302325
1323.00,0.302430
1324.00,0.302522
1325.00,0.302604
1326.00,0.302686
1327.00,0.302775
1328.00,0.302877
1329.00,0.302981
1330.00,0.303075
1331.00,0.303151
1332.00,0.303214
1333.00,0.303268
1334.00,0.303317
1335.00,0.303364
1336.00,0.303411
1337.00,0.303459
1338.00,0.303512
1339.00,0.303571
1340.00,0.303641
1341.00,0.303722
1342.00,0.303816
1343.00,0.303922
1344.00,0.304034
1345.00,0.304143
1346.00,0.304244
1347.00,0.304337
1348.00,
1349.00,
1350.00,
1351.00,
1352.00,
1353.00,
1354.00,
1355.00,
1356.00,
1357.00,
1358.00,
1359.00,
1360.00,
1361.00,
1362.00,
1363.00,
1364.00,
1365.00,
1366.00,
1367.00,
1368.00,
1369.00,
1370.00,
1371.00,
1372.00,
1373.00,
1374.00,
1375.00,
1376.00,
1377.00,
1378.00,
1379.00,
1380.00,
1381.00,
1382.00,
1383.00,
1384.00,
1385.00,
1386.00,
1387.00,
1388.00,
1389.00,
1390.00,
1391.00,
1392.00,
1393.00,
1394.00,
1395.00,
1396.00,
1397.00,
1398.00,
1399.00,
1400.00,
1401.00,
1402.00,
1403.00,
1404.00,
1405.00,
1406.00,
1407.00,
1408.00,
1409.00,
1410.00,
1411.00,
1412.00,
1413.00,
1414.00,
1415.00,
1416.00,
1417.00,
1418.00,
1419.00,
1420.00,
1421.00,0.274290
1422.00,0.273723
1423.00,0.273266
1424.00,0.272948
1425.00,0.272712
1426.00,0.272491
1427.00,0.272247
1428.00,0.272003
1429.00,0.271792
1430.00,0.271636
1431.00,0.271528
1432.00,0.271458
1433.00,0.271418
1434.00,0.271395
1435.00,0.271379
1436.00,0.271364
1437.00,0.271353
1438.00,0.271354
1439.00,0.271370
1440.00,0.271401
1441.00,0.271446
1442.00,0.271500
1443.00,0.271544
1444.00,0.271558
1445.00,0.271541
1446.00,0.271535
1447.00,0.271585
1448.00,0.271713
1449.00,0.271874
1450.00,0.272018
1451.00,0.272113
1452.00,0.272167
1453.00,0.272195
1454.00,0.272212
1455.00,0.272241
1456.00,0.272304
1457.00,0.272412
1458.00,0.272542
1459.00,0.272669
1460.00,0.272778
1461.00,0.272876
1462.00,0.272974
1463.00,0.273083
1464.00,0.273219
1465.00,0.273393
1466.00,0.273613
1467.00,0.273863
1468.00,0.274125
1469.00,0.274387
1470.00,0.274647
1471.00,0.274904
1472.00,0.275160
1473.00,0.275426
1474.00,0.275712
1475.00,0.276020
1476.00,0.276337
1477.00,0.276645
1478.00,0.276937
1479.00,0.277226
1480.00,0.277526
1481.00,0.277844
1482.00,0.278170
1483.00,0.278490
1484.00,0.278797
1485.00,0.279093
1486.00,0.279386
1487.00,0.279679
1488.00,0.279980
1489.00,0.280295
1490.00,0.280626
1491.00,0.280960
1492.00,0.281283
1493.00,0.281588
1494.00,0.281890
1495.00,0.282205
1496.00,0.282541
1497.00,0.282892
1498.00,0.283250
1499.00,0.283609
1500.00,0.283964
1501.00,0.284314
1502.00,0.284657
1503.00,0.285001
1504.00,0.285353
1505.00,0.285719
1506.00,0.286098
1507.00,0.286489
1508.00,0.286889
1509.00,0.287284
1510.00,0.287663
1511.00,0.288019
1512.00,0.288364
1513.00,0.288712
1514.00,0.289071
1515.00,0.289434
1516.00,0.289797
1517.00,0.290152
1518.00,0.290504
1519.00,0.290854
1520.00,0.291204
1521.00,0.291548
1522.00,0.291880
1523.00,0.292199
1524.00,0.292508
1525.00,0.292816
1526.00,0.293125
1527.00,0.293434
1528.00,0.293741
1529.00,0.294046
1530.00,0.294345
1531.00,0.294639
1532.00,0.294928
1533.00,0.295213
1534.00,0.295498
1535.00,0.295783
1536.00,0.296061
1537.00,0.296327
1538.00,0.296577
1539.00,0.296822
1540.00,0.297069
1541.00,0.297325
1542.00,0.297584
1543.00,0.297841
1544.00,0.298093
1545.00,0.298345
1546.00,0.298599
1547.00,0.298859
1548.00,0.299116
1549.00,0.299364
1550.00,0.299600
1551.00,0.299828
1552.00,0.300054
1553.00,0.300284
1554.00,0.300519
1555.00,0.300761
1556.00,0.301011
1557.00,0.301265
1558.00,0.301519
1559.00,0.301770
1560.00,0.302014
1561.00,0.302251
1562.00,0.302478
1563.00,0.302701
1564.00,0.302923
1565.00,0.303149
1566.00,0.303382
1567.00,0.303623
1568.00,0.303874
1569.00,0.304129
1570.00,0.304382
1571.00,0.304628
1572.00,0.304870
1573.00,0.305108
1574.00,0.305347
1575.00,0.305589
1576.00,0.305837
1577.00,0.306094
1578.00,0.306361
1579.00,0.306636
1580.00,0.306920
1581.00,0.307205
1582.00,0.307487
1583.00,0.307762
1584.00,0.308036
1585.00,0.308315
1586.00,0.308602
1587.00,0.308895
1588.00,0.309191
1589.00,0.309491
1590.00,0.309798
1591.00,0.310118
1592.00,0.310452
1593.00,0.310794
1594.00,0.311136
1595.00,0.311476
1596.00,0.311819
1597.00,0.312173
1598.00,0.312540
1599.00,0.312915
1600.00,0.313287
1601.00,0.313653
1602.00,0.314016
1603.00,0.314381
1604.00,0.314753
1605.00,0.315130
1606.00,0.315513
1607.00,0.315900
1608.00,0.316285
1609.00,0.316662
1610.00,0.317026
1611.00,0.317382
1612.00,0.317733
1613.00,0.318084
1614.00,0.318437
1615.00,0.318795
1616.00,0.319159
1617.00,0.319521
1618.00,0.319875
1619.00,0.320218
1620.00,0.320548
1621.00,0.320865
1622.00,0.321172
1623.00,0.321475
1624.00,0.321777
1625.00,0.322084
1626.00,0.322390
