wavelength_nm,reflectance
350.00,0.043892
351.00,0.043895
352.00,0.043898
353.00,0.044202
354.00,0.044678
355.00,0.045267
356.00,0.046026
357.00,0.046962
358.00,0.048048
359.00,0.049258
360.00,0.050554
361.00,0.051891
362.00,0.053236
363.00,0.054641
364.00,0.056212
365.00,0.058041
366.00,0.060102
367.00,0.062295
368.00,0.064531
369.00,0.066842
370.00,0.069327
371.00,0.072079
372.00,0.075113
373.00,0.078397
374.00,0.081904
375.00,0.085640
376.00,0.089633
377.00,0.093911
378.00,0.098515
379.00,0.103489
380.00,0.108879
381.00,0.114731
382.00,0.121090
383.00,0.128002
384.00,0.135541
385.00,0.143792
386.00,0.152837
387.00,0.162712
388.00,0.173425
389.00,0.184993
390.00,0.197515
391.00,0.211138
392.00,0.226002
393.00,0.242122
394.00,0.259450
395.00,0.277936
396.00,0.297555
397.00,0.318301
398.00,0.340154
399.00,0.363009
400.00,0.386698
401.00,0.411054
402.00,0.435846
403.00,0.460804
404.00,0.485664
405.00,0.510160
406.00,0.534035
407.00,0.557031
408.00,0.578904
409.00,0.599423
410.00,0.618360
411.00,0.635593
412.00,0.651059
413.00,0.664701
414.00,0.676571
415.00,0.686775
416.00,0.695427
417.00,0.702664
418.00,0.708645
419.00,0.713522
420.00,0.717459
421.00,0.720618
422.00,0.723159
423.00,0.725189
424.00,0.726788
425.00,0.728032
426.00,0.728987
427.00,0.729715
428.00,0.730276
429.00,0.730716
430.00,0.731079
431.00,0.731405
432.00,0.731689
433.00,0.731904
434.00,0.732024
435.00,0.732058
436.00,0.732035
437.00,0.731981
438.00,0.731895
439.00,0.731762
440.00,0.731566
441.00,0.731329
442.00,0.731088
443.00,0.730880
444.00,0.730711
445.00,0.730570
446.00,0.730444
447.00,0.730328
448.00,0.730218
449.00,0.730109
450.00,0.730002
451.00,0.729895
452.00,0.729791
453.00,0.729684
454.00,0.729575
455.00,0.729459
456.00,0.729342
457.00,0.729232
458.00,0.729136
459.00,0.729048
460.00,0.728953
461.00,0.728835
462.00,0.728700
463.00,0.728557
464.00,0.728422
465.00,0.728298
466.00,0.728189
467.00,0.728093
468.00,0.728005
469.00,0.727914
470.00,0.727810
471.00,0.727695
472.00,0.727579
473.00,0.727473
474.00,0.727377
475.00,0.727289
476.00,0.727205
477.00,0.727126
478.00,0.727053
479.00,0.726987
480.00,0.726921
481.00,0.726849
482.00,0.726764
483.00,0.726668
484.00,0.726570
485.00,0.726480
486.00,0.726398
487.00,0.726319
488.00,0.726239
489.00,0.726159
490.00,0.726078
491.00,0.725997
492.00,0.725915
493.00,0.725825
494.00,0.725726
495.00,0.725618
496.00,0.725508
497.00,0.725398
498.00,0.725290
499.00,0.725180
500.00,0.725061
501.00,0.724936
502.00,0.724799
503.00,0.724652
504.00,0.724498
505.00,0.724342
506.00,0.724188
507.00,0.724035
508.00,0.723880
509.00,0.723720
510.00,0.723552
511.00,0.723379
512.00,0.723202
513.00,0.723021
514.00,0.722841
515.00,0.722662
516.00,0.722484
517.00,0.722306
518.00,0.722127
519.00,0.721946
520.00,0.721766
521.00,0.721591
522.00,0.721420
523.00,0.721252
524.00,0.721088
525.00,0.720924
526.00,0.720755
527.00,0.720577
528.00,0.720391
529.00,0.720202
530.00,0.720013
531.00,0.719826
532.00,0.719642
533.00,0.719460
534.00,0.719281
535.00,0.719102
536.00,0.718921
537.00,0.718736
538.00,0.718546
539.00,0.718348
540.00,0.718153
541.00,0.717975
542.00,0.717828
543.00,0.717709
544.00,0.717603
545.00,0.717494
546.00,0.717358
547.00,0.717169
548.00,0.716902
549.00,0.716578
550.00,0.716241
551.00,0.715934
552.00,0.715662
553.00,0.715412
554.00,0.715169
555.00,0.714927
556.00,0.714684
557.00,0.714441
558.00,0.714200
559.00,0.713967
560.00,0.713747
561.00,0.713537
562.00,0.713330
563.00,0.713120
564.00,0.712908
565.00,0.712699
566.00,0.712500
567.00,0.712312
568.00,0.712137
569.00,0.711975
570.00,0.711825
571.00,0.711685
572.00,0.711554
573.00,0.711435
574.00,0.711336
575.00,0.711261
576.00,0.711205
577.00,0.711155
578.00,0.711098
579.00,0.711031
580.00,0.710954
581.00,0.710867
582.00,0.710768
583.00,0.710652
584.00,0.710513
585.00,0.710353
586.00,0.710177
587.00,0.709987
588.00,0.709783
589.00,0.709558
590.00,0.709308
591.00,0.709035
592.00,0.708746
593.00,0.708448
594.00,0.708146
595.00,0.707843
596.00,0.707543
597.00,0.707251
598.00,0.706972
599.00,0.706712
600.00,0.706455
601.00,0.706177
602.00,0.705856
603.00,0.705497
604.00,0.705122
605.00,0.704751
606.00,0.704393
607.00,0.704049
608.00,0.703720
609.00,0.703413
610.00,0.703136
611.00,0.702894
612.00,0.702678
613.00,0.702467
614.00,0.702245
615.00,0.702008
616.00,0.701763
617.00,0.701518
618.00,0.701284
619.00,0.701071
620.00,0.700890
621.00,0.700739
622.00,0.700612
623.00,0.700500
624.00,0.700398
625.00,0.700300
626.00,0.700201
627.00,0.700097
628.00,0.699986
629.00,0.699862
630.00,0.699717
631.00,0.699542
632.00,0.699325
633.00,0.699078
634.00,0.698824
635.00,0.698583
636.00,0.698359
637.00,0.698140
638.00,0.697922
639.00,0.697707
640.00,0.697510
641.00,0.697339
642.00,0.697191
643.00,0.697050
644.00,0.696904
645.00,0.696750
646.00,0.696588
647.00,0.696421
648.00,0.696248
649.00,0.696066
650.00,0.695872
651.00,0.695669
652.00,0.695460
653.00,0.695250
654.00,0.695037
655.00,0.694818
656.00,0.694590
657.00,0.694346
658.00,0.694078
659.00,0.693780
660.00,0.693450
661.00,0.693087
662.00,0.692694
663.00,0.692269
664.00,0.691809
665.00,0.691313
666.00,0.690781
667.00,0.690217
668.00,0.689628
669.00,0.689049
670.00,0.688534
671.00,0.688133
672.00,0.687869
673.00,0.687746
674.00,0.687766
675.00,0.687906
676.00,0.688124
677.00,0.688380
678.00,0.688641
679.00,0.688877
680.00,0.689059
681.00,0.689189
682.00,0.689281
683.00,0.689353
684.00,0.689403
685.00,0.689429
686.00,0.689426
687.00,0.689393
688.00,0.689334
689.00,0.689252
690.00,0.689155
691.00,0.689050
692.00,0.688943
693.00,0.688834
694.00,0.688720
695.00,0.688599
696.00,0.688473
697.00,0.688344
698.00,0.688219
699.00,0.688098
700.00,0.687978
701.00,0.687857
702.00,0.687734
703.00,0.687608
704.00,0.687479
705.00,0.687348
706.00,0.687218
707.00,0.687091
708.00,0.686965
709.00,0.686837
710.00,0.686702
711.00,0.686562
712.00,0.686420
713.00,0.686279
714.00,0.686143
715.00,0.686012
716.00,0.685888
717.00,0.685766
718.00,0.685643
719.00,0.685515
720.00,0.685380
721.00,0.685243
722.00,0.685106
723.00,0.684969
724.00,0.684830
725.00,0.684689
726.00,0.684548
727.00,0.684410
728.00,0.684278
729.00,0.684150
730.00,0.684022
731.00,0.683888
732.00,0.683750
733.00,0.683613
734.00,0.683480
735.00,0.683354
736.00,0.683233
737.00,0.683118
738.00,0.683005
739.00,0.682887
740.00,0.682760
741.00,0.682626
742.00,0.682495
743.00,0.682372
744.00,0.682255
745.00,0.682138
746.00,0.682011
747.00,0.681874
748.00,0.681730
749.00,0.681581
750.00,0.681428
751.00,0.681273
752.00,0.681116
753.00,0.680964
754.00,0.680823
755.00,0.680701
756.00,0.680592
757.00,0.680481
758.00,0.680357
759.00,0.680218
760.00,0.680071
761.00,0.679924
762.00,0.679781
763.00,0.679648
764.00,0.679529
765.00,0.679423
766.00,0.679323
767.00,0.679224
768.00,0.679124
769.00,0.679019
770.00,0.678910
771.00,0.678799
772.00,0.678690
773.00,0.678588
774.00,0.678492
775.00,0.678396
776.00,0.678298
777.00,0.678196
778.00,0.678092
779.00,0.677987
780.00,0.677879
781.00,0.677767
782.00,0.677649
783.00,0.677526
784.00,0.677400
785.00,0.677274
786.00,0.677149
787.00,0.677028
788.00,0.676909
789.00,0.676794
790.00,0.676682
791.00,0.676573
792.00,0.676464
793.00,0.676352
794.00,0.676237
795.00,0.676117
796.00,0.675998
797.00,0.675883
798.00,0.675771
799.00,0.675658
800.00,0.675539
801.00,0.675416
802.00,0.675296
803.00,0.675185
804.00,0.675084
805.00,0.674989
806.00,0.674896
807.00,0.674803
808.00,0.674706
809.00,0.674602
810.00,0.674490
811.00,0.674373
812.00,0.674251
813.00,0.674125
814.00,0.673997
815.00,0.673866
816.00,0.673735
817.00,0.673609
818.00,0.673489
819.00,0.673373
820.00,0.673256
821.00,0.673132
822.00,0.673004
823.00,0.672882
824.00,0.672770
825.00,0.672666
826.00,0.672562
827.00,0.672448
828.00,0.672327
829.00,0.672205
830.00,0.672090
831.00,0.671980
832.00,0.671872
833.00,0.671761
834.00,0.671647
835.00,0.671532
836.00,0.671418
837.00,0.671304
838.00,0.671190
839.00,0.671076
840.00,0.670961
841.00,0.670849
842.00,0.670741
843.00,0.670638
844.00,0.670542
845.00,0.670454
846.00,0.670368
847.00,0.670277
848.00,0.670171
849.00,0.670054
850.00,0.669936
851.00,0.669826
852.00,0.669720
853.00,0.669610
854.00,0.669488
855.00,0.669357
856.00,0.669224
857.00,0.669099
858.00,0.668982
859.00,0.668870
860.00,0.668761
861.00,0.668651
862.00,0.668533
863.00,0.668404
864.00,0.668267
865.00,0.668129
866.00,0.667997
867.00,0.667872
868.00,0.667752
869.00,0.667638
870.00,0.667526
871.00,0.667417
872.00,0.667311
873.00,0.667202
874.00,0.667088
875.00,0.666962
876.00,0.666829
877.00,0.666695
878.00,0.666568
879.00,0.666447
880.00,0.666327
881.00,0.666204
882.00,0.666077
883.00,0.665947
884.00,0.665817
885.00,0.665685
886.00,0.665550
887.00,0.665409
888.00,0.665262
889.00,0.665105
890.00,0.664939
891.00,0.664767
892.00,0.664596
893.00,0.664432
894.00,0.664277
895.00,0.664127
896.00,0.663981
897.00,0.663837
898.00,0.663692
899.00,0.663545
900.00,0.663396
901.00,0.663247
902.00,0.663100
903.00,0.662953
904.00,0.662805
905.00,0.662652
906.00,0.662491
907.00,0.662320
908.00,0.662136
909.00,0.661940
910.00,0.661734
911.00,0.661522
912.00,0.661300
913.00,0.661066
914.00,0.660814
915.00,0.660549
916.00,0.660276
917.00,0.660003
918.00,0.659728
919.00,0.659445
920.00,0.659150
921.00,0.658840
922.00,0.658515
923.00,0.658177
924.00,0.657832
925.00,0.657486
926.00,0.657150
927.00,0.656827
928.00,0.656522
929.00,0.656238
930.00,0.655983
931.00,0.655764
932.00,0.655591
933.00,0.655467
934.00,0.655397
935.00,0.655384
936.00,0.655423
937.00,0.655507
938.00,0.655628
939.00,0.655775
940.00,0.655935
941.00,0.656095
942.00,0.656249
943.00,0.656392
944.00,0.656520
945.00,0.656630
946.00,0.656723
947.00,0.656799
948.00,0.656861
949.00,0.656913
950.00,0.656960
951.00,0.656995
952.00,0.657007
953.00,0.656985
954.00,0.656936
955.00,0.656874
956.00,0.656812
957.00,0.656757
958.00,0.656706
959.00,0.656659
960.00,0.656613
961.00,0.656567
962.00,0.656517
963.00,0.656457
964.00,0.656380
965.00,0.656280
966.00,0.656166
967.00,0.656057
968.00,0.655971
969.00,0.655905
970.00,0.655850
971.00,0.655794
972.00,0.655731
973.00,0.655659
974.00,0.655575
975.00,0.655481
976.00,0.655384
977.00,0.655288
978.00,0.655194
979.00,0.655097
980.00,0.654996
981.00,0.654889
982.00,0.654778
983.00,0.654665
984.00,0.654551
985.00,0.654441
986.00,0.654337
987.00,0.654236
988.00,0.654131
989.00,0.654015
990.00,0.653890
991.00,0.653763
992.00,0.653641
993.00,0.653523
994.00,0.653407
995.00,0.653289
996.00,0.653158
997.00,0.653001
998.00,0.652813
999.00,0.652644
1000.00,0.652582
1001.00,0.652702
1002.00,0.652950
1003.00,0.653196
1004.00,0.653309
1005.00,0.653221
1006.00,0.653011
1007.00,0.652773
1008.00,0.652569
1009.00,0.652387
1010.00,0.652205
1011.00,0.652011
1012.00,0.651827
1013.00,0.651678
1014.00,0.651567
1015.00,0.651454
1016.00,0.651293
1017.00,0.651066
1018.00,0.650820
1019.00,0.650610
1020.00,0.650463
1021.00,0.650348
1022.00,0.650225
1023.00,0.650068
1024.00,0.649891
1025.00,0.649713
1026.00,0.649541
1027.00,0.649367
1028.00,0.649176
1029.00,0.648962
1030.00,0.648745
1031.00,0.648544
1032.00,0.648369
1033.00,0.648198
1034.00,0.648011
1035.00,0.647799
1036.00,0.647600
1037.00,0.647450
1038.00,0.647365
1039.00,0.647313
1040.00,0.647251
1041.00,0.647154
1042.00,0.647025
1043.00,0.646872
1044.00,0.646704
1045.00,0.646535
1046.00,0.646374
1047.00,0.646233
1048.00,0.646112
1049.00,0.646009
1050.00,0.645922
1051.00,0.645838
1052.00,0.645745
1053.00,0.645636
1054.00,0.645523
1055.00,0.645418
1056.00,0.645328
1057.00,0.645250
1058.00,0.645181
1059.00,0.645118
1060.00,0.645057
1061.00,0.644993
1062.00,0.644926
1063.00,0.644855
1064.00,0.644782
1065.00,0.644710
1066.00,0.644643
1067.00,0.644584
1068.00,0.644533
1069.00,0.644481
1070.00,0.644416
1071.00,0.644333
1072.00,0.644237
1073.00,0.644133
1074.00,0.644029
1075.00,0.643926
1076.00,0.643830
1077.00,0.643745
1078.00,0.643682
1079.00,0.643652
1080.00,0.643650
1081.00,0.643637
1082.00,0.643567
1083.00,0.643427
1084.00,0.643264
1085.00,0.643133
1086.00,0.643066
1087.00,0.643032
1088.00,0.642992
1089.00,0.642922
1090.00,0.642829
1091.00,0.642723
1092.00,0.642610
1093.00,0.642489
1094.00,0.642356
1095.00,0.642214
1096.00,0.642069
1097.00,0.641933
1098.00,0.641811
1099.00,0.641694
1100.00,0.641575
1101.00,0.641449
1102.00,0.641325
1103.00,0.641212
1104.00,0.641116
1105.00,0.641028
1106.00,0.640943
1107.00,0.640854
1108.00,0.640757
1109.00,0.640648
1110.00,0.640526
1111.00,0.640398
1112.00,0.640269
1113.00,0.640145
1114.00,0.640028
1115.00,0.639916
1116.00,0.639809
1117.00,0.639701
1118.00,0.639586
1119.00,0.639459
1120.00,0.639325
1121.00,0.639184
1122.00,0.639041
1123.00,0.638902
1124.00,0.638773
1125.00,0.638661
1126.00,0.638562
1127.00,0.638475
1128.00,0.638395
1129.00,0.638300
1130.00,0.638172
1131.00,0.638003
1132.00,0.637817
1133.00,0.637641
1134.00,0.637487
1135.00,0.637338
1136.00,0.637171
1137.00,0.636973
1138.00,0.636753
1139.00,0.636523
1140.00,0.636293
1141.00,0.636069
1142.00,0.635854
1143.00,0.635643
1144.00,0.635411
1145.00,0.635124
1146.00,0.634773
1147.00,0.634392
1148.00,0.634019
1149.00,0.633675
1150.00,0.633338
1151.00,0.632979
1152.00,0.632580
1153.00,0.632146
1154.00,0.631683
1155.00,0.631197
1156.00,0.630687
1157.00,0.630148
1158.00,0.629583
1159.00,0.628992
1160.00,0.628381
1161.00,0.627755
1162.00,0.627131
1163.00,0.626524
1164.00,0.625947
1165.00,0.625399
1166.00,0.624879
1167.00,0.624385
1168.00,0.623923
1169.00,0.623497
1170.00,0.623105
1171.00,0.622728
1172.00,0.622349
1173.00,0.621949
1174.00,0.621519
1175.00,0.621049
1176.00,0.620531
1177.00,0.619962
1178.00,0.619338
1179.00,0.618660
1180.00,0.617935
1181.00,0.617173
1182.00,0.616381
1183.00,0.615560
1184.00,0.614712
1185.00,0.613839
1186.00,0.612945
1187.00,0.612038
1188.00,0.611118
1189.00,0.610178
1190.00,0.609211
1191.00,0.608208
1192.00,0.607164
1193.00,0.606073
1194.00,0.604927
1195.00,0.603711
1196.00,0.602407
1197.00,0.601007
1198.00,0.599516
1199.00,0.597943
1200.00,0.596297
1201.00,0.594596
1202.00,0.592857
1203.00,0.591099
1204.00,0.589343
1205.00,0.587606
1206.00,0.585914
1207.00,0.584293
1208.00,0.582772
1209.00,0.581380
1210.00,0.580148
1211.00,0.579109
1212.00,0.578291
1213.00,0.577724
1214.00,0.577435
1215.00,0.577440
1216.00,0.577724
1217.00,0.578267
1218.00,0.579055
1219.00,0.580087
1220.00,0.581366
1221.00,0.582874
1222.00,0.584561
1223.00,0.586370
1224.00,0.588254
1225.00,0.590182
1226.00,0.592124
1227.00,0.594050
1228.00,0.595929
1229.00,0.597728
1230.00,0.599421
1231.00,0.601005
1232.00,0.602477
1233.00,0.603838
1234.00,0.605088
1235.00,0.606231
1236.00,0.607273
1237.00,0.608223
1238.00,0.609093
1239.00,0.609891
1240.00,0.610620
1241.00,0.611285
1242.00,0.611888
1243.00,0.612440
1244.00,0.612949
1245.00,0.613422
1246.00,0.613860
1247.00,0.614262
1248.00,0.614629
1249.00,0.614966
1250.00,0.615275
1251.00,0.615560
1252.00,0.615819
1253.00,0.616051
1254.00,0.616256
1255.00,0.616440
1256.00,0.616607
1257.00,0.616760
1258.00,0.616897
1259.00,0.617014
1260.00,0.617109
1261.00,0.617189
1262.00,0.617258
1263.00,0.617322
1264.00,0.617382
1265.00,0.617441
1266.00,0.617498
1267.00,0.617553
1268.00,0.617602
1269.00,0.617643
1270.00,0.617671
1271.00,0.617684
1272.00,0.617679
1273.00,0.617662
1274.00,0.617638
1275.00,0.617612
1276.00,0.617583
1277.00,0.617551
1278.00,0.617516
1279.00,0.617479
1280.00,0.617441
1281.00,0.617403
1282.00,0.617355
1283.00,0.617292
1284.00,0.617211
1285.00,0.617123
1286.00,0.617041
1287.00,0.616970
1288.00,0.616904
1289.00,0.616831
1290.00,0.616748
1291.00,0.616658
1292.00,0.616569
1293.00,0.616483
1294.00,0.616399
1295.00,0.616316
1296.00,0.616233
1297.00,0.616159
1298.00,0.616099
1299.00,0.616057
1300.00,0.616021
1301.00,0.615977
1302.00,0.615921
1303.00,0.615857
1304.00,0.615793
1305.00,0.615734
1306.00,0.615676
1307.00,0.615617
1308.00,0.615554
1309.00,0.615489
1310.00,0.615424
1311.00,0.615361
1312.00,0.615301
1313.00,0.615242
1314.00,0.615183
1315.00,0.615125
1316.00,0.615064
1317.00,0.615002
1318.00,0.614939
1319.00,0.614879
1320.00,0.614823
1321.00,0.614770
1322.00,0.614721
1323.00,0.614672
1324.00,0.614614
1325.00,0.614537
1326.00,0.614437
1327.00,0.614320
1328.00,0.614196
1329.00,0.614070
1330.00,0.613947
1331.00,0.613830
1332.00,0.613718
1333.00,0.613604
1334.00,0.613483
1335.00,0.613349
1336.00,0.613205
1337.00,0.613055
1338.00,0.612900
1339.00,0.612739
1340.00,0.612569
1341.00,0.612390
1342.00,0.612209
1343.00,0.612033
1344.00,0.611863
1345.00,0.611693
1346.00,0.611515
1347.00,0.611324
1348.00,0.611123
1349.00,0.610917
1350.00,0.610710
1351.00,0.610501
1352.00,0.610287
1353.00,0.610067
1354.00,0.609836
1355.00,0.609586
1356.00,0.609314
1357.00,0.609020
1358.00,0.608703
1359.00,0.608366
1360.00,0.608011
1361.00,0.607642
1362.00,0.607262
1363.00,0.606866
1364.00,0.606447
1365.00,0.606000
1366.00,0.605518
1367.00,0.604998
1368.00,0.604433
1369.00,0.603825
1370.00,0.603178
1371.00,0.602493
1372.00,0.601775
1373.00,0.601030
1374.00,0.600259
1375.00,0.599454
1376.00,0.598604
1377.00,0.597701
1378.00,0.596739
1379.00,0.595714
1380.00,0.594618
1381.00,0.593445
1382.00,0.592186
1383.00,0.590836
1384.00,0.589397
1385.00,0.587870
1386.00,0.586274
1387.00,0.584668
1388.00,0.583112
1389.00,0.581663
1390.00,0.580362
1391.00,0.579248
1392.00,0.578357
1393.00,0.577715
1394.00,0.577346
1395.00,0.577255
1396.00,0.577400
1397.00,0.577731
1398.00,0.578193
1399.00,0.578720
1400.00,0.579241
1401.00,0.579696
1402.00,0.580042
1403.00,0.580240
1404.00,0.580261
1405.00,0.580105
1406.00,0.579775
1407.00,0.579285
1408.00,0.578674
1409.00,0.577984
1410.00,0.577254
1411.00,0.576517
1412.00,0.575803
1413.00,0.575141
1414.00,0.574558
1415.00,0.574077
1416.00,0.573713
1417.00,0.573460
1418.00,0.573307
1419.00,0.573243
1420.00,0.573257
1421.00,0.573334
1422.00,0.573462
1423.00,0.573626
1424.00,0.573811
1425.00,0.574006
1426.00,0.574200
1427.00,0.574385
1428.00,0.574555
1429.00,0.574712
1430.00,0.574860
1431.00,0.575002
1432.00,0.575141
1433.00,0.575284
1434.00,0.575432
1435.00,0.575592
1436.00,0.575765
1437.00,0.575955
1438.00,0.576166
1439.00,0.576397
1440.00,0.576651
1441.00,0.576928
1442.00,0.577227
1443.00,0.577546
1444.00,0.577881
1445.00,0.578226
1446.00,0.578575
1447.00,0.578922
1448.00,0.579258
1449.00,0.579579
1450.00,0.579888
1451.00,0.580189
1452.00,0.580482
1453.00,0.580762
1454.00,0.581025
1455.00,0.581267
1456.00,0.581495
1457.00,0.581717
1458.00,0.581939
1459.00,0.582160
1460.00,0.582380
1461.00,0.582595
1462.00,0.582808
1463.00,0.583021
1464.00,0.583235
1465.00,0.583456
1466.00,0.583690
1467.00,0.583936
1468.00,0.584187
1469.00,0.584429
1470.00,0.584656
1471.00,0.584869
1472.00,0.585073
1473.00,0.585265
1474.00,0.585446
1475.00,0.585610
1476.00,0.585755
1477.00,0.585882
1478.00,0.585991
1479.00,0.586086
1480.00,0.586171
1481.00,0.586253
1482.00,0.586335
1483.00,0.586416
1484.00,0.586495
1485.00,0.586567
1486.00,0.586629
1487.00,0.586675
1488.00,0.586704
1489.00,0.586721
1490.00,0.586735
1491.00,0.586748
1492.00,0.586759
1493.00,0.586763
1494.00,0.586757
