wavelength_nm,reflectance
350.00,0.067677
351.00,0.067681
352.00,0.067685
353.00,0.068010
354.00,0.068443
355.00,0.068803
356.00,0.069051
357.00,0.069184
358.00,0.069218
359.00,0.069174
360.00,0.069078
361.00,0.068966
362.00,0.068865
363.00,0.068759
364.00,0.068605
365.00,0.068364
366.00,0.068049
367.00,0.067708
368.00,0.067384
369.00,0.067079
370.00,0.066772
371.00,0.066442
372.00,0.066086
373.00,0.065711
374.00,0.065322
375.00,0.064922
376.00,0.064512
377.00,0.064091
378.00,0.063655
379.00,0.063191
380.00,0.062690
381.00,0.062145
382.00,0.061548
383.00,0.060895
384.00,0.060218
385.00,0.059568
386.00,0.058991
387.00,0.058463
388.00,0.057920
389.00,0.057306
390.00,0.056628
391.00,0.055934
392.00,0.055267
393.00,0.054639
394.00,0.054043
395.00,0.053469
396.00,0.052897
397.00,0.052302
398.00,0.051660
399.00,0.050994
400.00,0.050353
401.00,0.049780
402.00,0.049263
403.00,0.048755
404.00,0.048216
405.00,0.047648
406.00,0.047083
407.00,0.046549
408.00,0.046047
409.00,0.045562
410.00,0.045080
411.00,0.044591
412.00,0.044091
413.00,0.043580
414.00,0.043073
415.00,0.042599
416.00,0.042184
417.00,0.041822
418.00,0.041493
419.00,0.041175
420.00,0.040855
421.00,0.040524
422.00,0.040176
423.00,0.039821
424.00,0.039480
425.00,0.039171
426.00,0.038894
427.00,0.038638
428.00,0.038393
429.00,0.038156
430.00,0.037928
431.00,0.037710
432.00,0.037501
433.00,0.037300
434.00,0.037105
435.00,0.036919
436.00,0.036747
437.00,0.036593
438.00,0.036451
439.00,0.036307
440.00,0.036151
441.00,0.035989
442.00,0.035839
443.00,0.035719
444.00,0.035626
445.00,0.035549
446.00,0.035477
447.00,0.035413
448.00,0.035362
449.00,0.035333
450.00,0.035324
451.00,0.035327
452.00,0.035336
453.00,0.035347
454.00,0.035355
455.00,0.035360
456.00,0.035371
457.00,0.035408
458.00,0.035488
459.00,0.035603
460.00,0.035728
461.00,0.035844
462.00,0.035950
463.00,0.036061
464.00,0.036189
465.00,0.036335
466.00,0.036494
467.00,0.036661
468.00,0.036836
469.00,0.037018
470.00,0.037207
471.00,0.037410
472.00,0.037632
473.00,0.037880
474.00,0.038150
475.00,0.038430
476.00,0.038712
477.00,0.039004
478.00,0.039323
479.00,0.039686
480.00,0.040094
481.00,0.040537
482.00,0.041004
483.00,0.041495
484.00,0.042010
485.00,0.042553
486.00,0.043125
487.00,0.043731
488.00,0.044372
489.00,0.045046
490.00,0.045749
491.00,0.046475
492.00,0.047224
493.00,0.047995
494.00,0.048788
495.00,0.049599
496.00,0.050416
497.00,0.051233
498.00,0.052048
499.00,0.052868
500.00,0.053697
501.00,0.054531
502.00,0.055359
503.00,0.056174
504.00,0.056976
505.00,0.057771
506.00,0.058562
507.00,0.059351
508.00,0.060136
509.00,0.060914
510.00,0.061685
511.00,0.062448
512.00,0.063205
513.00,0.063953
514.00,0.064691
515.00,0.065417
516.00,0.066132
517.00,0.066837
518.00,0.067537
519.00,0.068228
520.00,0.068909
521.00,0.069575
522.00,0.070226
523.00,0.070862
524.00,0.071483
525.00,0.072087
526.00,0.072671
527.00,0.073234
528.00,0.073777
529.00,0.074305
530.00,0.074819
531.00,0.075316
532.00,0.075785
533.00,0.076218
534.00,0.076615
535.00,0.076984
536.00,0.077332
537.00,0.077659
538.00,0.077960
539.00,0.078229
540.00,0.078467
541.00,0.078677
542.00,0.078861
543.00,0.079021
544.00,0.079161
545.00,0.079280
546.00,0.079379
547.00,0.079453
548.00,0.079501
549.00,0.079524
550.00,0.079526
551.00,0.079512
552.00,0.079483
553.00,0.079440
554.00,0.079382
555.00,0.079312
556.00,0.079231
557.00,0.079145
558.00,0.079051
559.00,0.078949
560.00,0.078838
561.00,0.078719
562.00,0.078597
563.00,0.078474
564.00,0.078350
565.00,0.078219
566.00,0.078079
567.00,0.077930
568.00,0.077780
569.00,0.077634
570.00,0.077491
571.00,0.077347
572.00,0.077198
573.00,0.077042
574.00,0.076882
575.00,0.076719
576.00,0.076553
577.00,0.076385
578.00,0.076214
579.00,0.076039
580.00,0.075858
581.00,0.075669
582.00,0.075474
583.00,0.075280
584.00,0.075091
585.00,0.074906
586.00,0.074720
587.00,0.074529
588.00,0.074333
589.00,0.074138
590.00,0.073948
591.00,0.073766
592.00,0.073590
593.00,0.073420
594.00,0.073255
595.00,0.073096
596.00,0.072941
597.00,0.072796
598.00,0.072663
599.00,0.072547
600.00,0.072448
601.00,0.072361
602.00,0.072281
603.00,0.072212
604.00,0.072158
605.00,0.072126
606.00,0.072114
607.00,0.072118
608.00,0.072132
609.00,0.072157
610.00,0.072194
611.00,0.072245
612.00,0.072312
613.00,0.072396
614.00,0.072499
615.00,0.072618
616.00,0.072749
617.00,0.072885
618.00,0.073029
619.00,0.073183
620.00,0.073350
621.00,0.073532
622.00,0.073725
623.00,0.073926
624.00,0.074134
625.00,0.074348
626.00,0.074566
627.00,0.074788
628.00,0.075012
629.00,0.075237
630.00,0.075462
631.00,0.075685
632.00,0.075904
633.00,0.076123
634.00,0.076347
635.00,0.076579
636.00,0.076817
637.00,0.077058
638.00,0.077296
639.00,0.077532
640.00,0.077773
641.00,0.078024
642.00,0.078285
643.00,0.078556
644.00,0.078835
645.00,0.079124
646.00,0.079428
647.00,0.079750
648.00,0.080092
649.00,0.080457
650.00,0.080847
651.00,0.081264
652.00,0.081708
653.00,0.082181
654.00,0.082687
655.00,0.083232
656.00,0.083823
657.00,0.084460
658.00,0.085137
659.00,0.085853
660.00,0.086613
661.00,0.087428
662.00,0.088309
663.00,0.089256
664.00,0.090262
665.00,0.091321
666.00,0.092437
667.00,0.093623
668.00,0.094888
669.00,0.096235
670.00,0.097662
671.00,0.099167
672.00,0.100750
673.00,0.102416
674.00,0.104165
675.00,0.106004
676.00,0.107936
677.00,0.109967
678.00,0.112098
679.00,0.114325
680.00,0.116649
681.00,0.119070
682.00,0.121596
683.00,0.124230
684.00,0.126972
685.00,0.129820
686.00,0.132772
687.00,0.135830
688.00,0.138996
689.00,0.142273
690.00,0.145660
691.00,0.149157
692.00,0.152761
693.00,0.156470
694.00,0.160284
695.00,0.164202
696.00,0.168223
697.00,0.172349
698.00,0.176580
699.00,0.180913
700.00,0.185339
701.00,0.189854
702.00,0.194455
703.00,0.199149
704.00,0.203937
705.00,0.208814
706.00,0.213767
707.00,0.218785
708.00,0.223870
709.00,0.229027
710.00,0.234263
711.00,0.239572
712.00,0.244943
713.00,0.250363
714.00,0.255828
715.00,0.261338
716.00,0.266891
717.00,0.272487
718.00,0.278122
719.00,0.283791
720.00,0.289492
721.00,0.295218
722.00,0.300965
723.00,0.306729
724.00,0.312507
725.00,0.318297
726.00,0.324096
727.00,0.329900
728.00,0.335706
729.00,0.341512
730.00,0.347314
731.00,0.353111
732.00,0.358900
733.00,0.364677
734.00,0.370439
735.00,0.376183
736.00,0.381904
737.00,0.387598
738.00,0.393267
739.00,0.398913
740.00,0.404539
741.00,0.410138
742.00,0.415702
743.00,0.421221
744.00,0.426695
745.00,0.432130
746.00,0.437531
747.00,0.442892
748.00,0.448200
749.00,0.453444
750.00,0.458627
751.00,0.463756
752.00,0.468842
753.00,0.473886
754.00,0.478884
755.00,0.483834
756.00,0.488731
757.00,0.493568
758.00,0.498339
759.00,0.503048
760.00,0.507703
761.00,0.512312
762.00,0.516870
763.00,0.521364
764.00,0.525784
765.00,0.530125
766.00,0.534389
767.00,0.538577
768.00,0.542691
769.00,0.546733
770.00,0.550705
771.00,0.554604
772.00,0.558423
773.00,0.562155
774.00,0.565802
775.00,0.569369
776.00,0.572859
777.00,0.576274
778.00,0.579608
779.00,0.582859
780.00,0.586028
781.00,0.589118
782.00,0.592134
783.00,0.595073
784.00,0.597932
785.00,0.600707
786.00,0.603400
787.00,0.606018
788.00,0.608565
789.00,0.611042
790.00,0.613446
791.00,0.615776
792.00,0.618032
793.00,0.620222
794.00,0.622348
795.00,0.624410
796.00,0.626406
797.00,0.628335
798.00,0.630197
799.00,0.631999
800.00,0.633746
801.00,0.635442
802.00,0.637091
803.00,0.638697
804.00,0.640256
805.00,0.641758
806.00,0.643196
807.00,0.644576
808.00,0.645914
809.00,0.647224
810.00,0.648504
811.00,0.649745
812.00,0.650939
813.00,0.652090
814.00,0.653206
815.00,0.654296
816.00,0.655364
817.00,0.656406
818.00,0.657422
819.00,0.658410
820.00,0.659374
821.00,0.660313
822.00,0.661234
823.00,0.662144
824.00,0.663050
825.00,0.663949
826.00,0.664833
827.00,0.665697
828.00,0.666540
829.00,0.667368
830.00,0.668188
831.00,0.668997
832.00,0.669795
833.00,0.670579
834.00,0.671350
835.00,0.672111
836.00,0.672867
837.00,0.673616
838.00,0.674358
839.00,0.675090
840.00,0.675812
841.00,0.676524
842.00,0.677225
843.00,0.677913
844.00,0.678587
845.00,0.679244
846.00,0.679885
847.00,0.680514
848.00,0.681134
849.00,0.681746
850.00,0.682351
851.00,0.682949
852.00,0.683538
853.00,0.684111
854.00,0.684665
855.00,0.685205
856.00,0.685743
857.00,0.686289
858.00,0.686832
859.00,0.687350
860.00,0.687825
861.00,0.688259
862.00,0.688669
863.00,0.689073
864.00,0.689475
865.00,0.689875
866.00,0.690271
867.00,0.690658
868.00,0.691028
869.00,0.691372
870.00,0.691691
871.00,0.691985
872.00,0.692257
873.00,0.692509
874.00,0.692743
875.00,0.692961
876.00,0.693165
877.00,0.693351
878.00,0.693518
879.00,0.693666
880.00,0.693796
881.00,0.693907
882.00,0.694002
883.00,0.694079
884.00,0.694141
885.00,0.694186
886.00,0.694214
887.00,0.694224
888.00,0.694215
889.00,0.694183
890.00,0.694128
891.00,0.694051
892.00,0.693961
893.00,0.693862
894.00,0.693754
895.00,0.693631
896.00,0.693489
897.00,0.693320
898.00,0.693114
899.00,0.692865
900.00,0.692572
901.00,0.692236
902.00,0.691863
903.00,0.691450
904.00,0.690996
905.00,0.690496
906.00,0.689955
907.00,0.689377
908.00,0.688770
909.00,0.688137
910.00,0.687483
911.00,0.686811
912.00,0.686129
913.00,0.685446
914.00,0.684773
915.00,0.684122
916.00,0.683507
917.00,0.682942
918.00,0.682441
919.00,0.682022
920.00,0.681699
921.00,0.681477
922.00,0.681357
923.00,0.681337
924.00,0.681420
925.00,0.681612
926.00,0.681918
927.00,0.682337
928.00,0.682868
929.00,0.683508
930.00,0.684248
931.00,0.685073
932.00,0.685970
933.00,0.686929
934.00,0.687938
935.00,0.688988
936.00,0.690070
937.00,0.691173
938.00,0.692287
939.00,0.693396
940.00,0.694481
941.00,0.695524
942.00,0.696520
943.00,0.697471
944.00,0.698379
945.00,0.699244
946.00,0.700067
947.00,0.700845
948.00,0.701579
949.00,0.702269
950.00,0.702913
951.00,0.703515
952.00,0.704081
953.00,0.704619
954.00,0.705131
955.00,0.705621
956.00,0.706088
957.00,0.706538
958.00,0.706971
959.00,0.707391
960.00,0.707802
961.00,0.708209
962.00,0.708615
963.00,0.709015
964.00,0.709404
965.00,0.709772
966.00,0.710124
967.00,0.710471
968.00,0.710820
969.00,0.711167
970.00,0.711500
971.00,0.711807
972.00,0.712089
973.00,0.712352
974.00,0.712602
975.00,0.712845
976.00,0.713085
977.00,0.713328
978.00,0.713569
979.00,0.713801
980.00,0.714018
981.00,0.714218
982.00,0.714400
983.00,0.714565
984.00,0.714711
985.00,0.714836
986.00,0.714936
987.00,0.715018
988.00,0.715094
989.00,0.715172
990.00,0.715249
991.00,0.715307
992.00,0.715335
993.00,0.715331
994.00,0.715304
995.00,0.715262
996.00,0.715206
997.00,0.715137
998.00,0.715054
999.00,0.714945
1000.00,0.714793
1001.00,0.714579
1002.00,0.714309
1003.00,0.714002
1004.00,0.713677
1005.00,0.713345
1006.00,0.713013
1007.00,0.712684
1008.00,0.712353
1009.00,0.712008
1010.00,0.711637
1011.00,0.711235
1012.00,0.710826
1013.00,0.710439
1014.00,0.710088
1015.00,0.709768
1016.00,0.709469
1017.00,0.709172
1018.00,0.708850
1019.00,0.708470
1020.00,0.708031
1021.00,0.707599
1022.00,0.707252
1023.00,0.707012
1024.00,0.706795
1025.00,0.706497
1026.00,0.706069
1027.00,0.705581
1028.00,0.705120
1029.00,0.704741
1030.00,0.704441
1031.00,0.704206
1032.00,0.704010
1033.00,0.703792
1034.00,0.703489
1035.00,0.703083
1036.00,0.702664
1037.00,0.702333
1038.00,0.702151
1039.00,0.702090
1040.00,0.702111
1041.00,0.702174
1042.00,0.702241
1043.00,0.702275
1044.00,0.702261
1045.00,0.702238
1046.00,0.702248
1047.00,0.702319
1048.00,0.702437
1049.00,0.702583
1050.00,0.702743
1051.00,0.702913
1052.00,0.703089
1053.00,0.703274
1054.00,0.703491
1055.00,0.703761
1056.00,0.704096
1057.00,0.704482
1058.00,0.704904
1059.00,0.705361
1060.00,0.705879
1061.00,0.706489
1062.00,0.707186
1063.00,0.707875
1064.00,0.708452
1065.00,0.708874
1066.00,0.709228
1067.00,0.709618
1068.00,0.710115
1069.00,0.710717
1070.00,0.711406
1071.00,0.712156
1072.00,0.712909
1073.00,0.713605
1074.00,0.714221
1075.00,0.714819
1076.00,0.715472
1077.00,0.716219
1078.00,0.717017
1079.00,0.717813
1080.00,0.718568
1081.00,0.719272
1082.00,0.719917
1083.00,0.720507
1084.00,0.721064
1085.00,0.721610
1086.00,0.722165
1087.00,0.722721
1088.00,0.723274
1089.00,0.723817
1090.00,0.724353
1091.00,0.724884
1092.00,0.725408
1093.00,0.725924
1094.00,0.726426
1095.00,0.726915
1096.00,0.727389
1097.00,0.727850
1098.00,0.728300
1099.00,0.728743
1100.00,0.729185
1101.00,0.729622
1102.00,0.730033
1103.00,0.730394
1104.00,0.730703
1105.00,0.731003
1106.00,0.731347
1107.00,0.731759
1108.00,0.732211
1109.00,0.732666
1110.00,0.733091
1111.00,0.733462
1112.00,0.733757
1113.00,0.733980
1114.00,0.734189
1115.00,0.734449
1116.00,0.734789
1117.00,0.735158
1118.00,0.735494
1119.00,0.735751
1120.00,0.735922
1121.00,0.736001
1122.00,0.735989
1123.00,0.735899
1124.00,0.735743
1125.00,0.735532
1126.00,0.735273
1127.00,0.734972
1128.00,0.734623
1129.00,0.734195
1130.00,0.733653
1131.00,0.732977
1132.00,0.732176
1133.00,0.731266
1134.00,0.730254
1135.00,0.729135
1136.00,0.727903
1137.00,0.726560
1138.00,0.725125
1139.00,0.723617
1140.00,0.722048
1141.00,0.720397
1142.00,0.718643
1143.00,0.716775
1144.00,0.714822
1145.00,0.712810
1146.00,0.710755
1147.00,0.708640
1148.00,0.706439
1149.00,0.704150
1150.00,0.701805
1151.00,0.699444
1152.00,0.697100
1153.00,0.694798
1154.00,0.692559
1155.00,0.690396
1156.00,0.688311
1157.00,0.686298
1158.00,0.684354
1159.00,0.682472
1160.00,0.680646
1161.00,0.678857
1162.00,0.677070
1163.00,0.675242
1164.00,0.673345
1165.00,0.671371
1166.00,0.669319
1167.00,0.667182
1168.00,0.664955
1169.00,0.662628
1170.00,0.660191
1171.00,0.657625
1172.00,0.654914
1173.00,0.652051
1174.00,0.649058
1175.00,0.645959
1176.00,0.642780
1177.00,0.639548
1178.00,0.636289
1179.00,0.633023
1180.00,0.629753
1181.00,0.626480
1182.00,0.623209
1183.00,0.619948
1184.00,0.616706
1185.00,0.613490
1186.00,0.610301
1187.00,0.607140
1188.00,0.604016
1189.00,0.600963
1190.00,0.598012
1191.00,0.595195
1192.00,0.592536
1193.00,0.590058
1194.00,0.587776
1195.00,0.585688
1196.00,0.583787
1197.00,0.582090
1198.00,0.580650
1199.00,0.579530
1200.00,0.578761
1201.00,0.578311
1202.00,0.578140
1203.00,0.578225
1204.00,0.578588
1205.00,0.579251
1206.00,0.580230
1207.00,0.581507
1208.00,0.583064
1209.00,0.584884
1210.00,0.586951
1211.00,0.589251
1212.00,0.591772
1213.00,0.594512
1214.00,0.597470
1215.00,0.600627
1216.00,0.603925
1217.00,0.607301
1218.00,0.610715
1219.00,0.614171
1220.00,0.617684
1221.00,0.621244
1222.00,0.624791
1223.00,0.628261
1224.00,0.631604
1225.00,0.634804
1226.00,0.637851
1227.00,0.640739
1228.00,0.643484
1229.00,0.646101
1230.00,0.648606
1231.00,0.651011
1232.00,0.653333
1233.00,0.655586
1234.00,0.657783
1235.00,0.659938
1236.00,0.662069
1237.00,0.664206
1238.00,0.666377
1239.00,0.668603
1240.00,0.670878
1241.00,0.673196
1242.00,0.675540
1243.00,0.677873
1244.00,0.680153
1245.00,0.682351
1246.00,0.684456
1247.00,0.686462
1248.00,0.688355
1249.00,0.690113
1250.00,0.691712
1251.00,0.693133
1252.00,0.694369
1253.00,0.695411
1254.00,0.696260
1255.00,0.696927
1256.00,0.697423
1257.00,0.697762
1258.00,0.697960
1259.00,0.698030
1260.00,0.697990
1261.00,0.697859
1262.00,0.697656
1263.00,0.697396
1264.00,0.697083
1265.00,0.696716
1266.00,0.696309
1267.00,0.695894
1268.00,0.695506
1269.00,0.695175
1270.00,0.694920
1271.00,0.694757
1272.00,0.694697
1273.00,0.694738
1274.00,0.694878
1275.00,0.695112
1276.00,0.695437
1277.00,0.695848
1278.00,0.696335
1279.00,0.696874
1280.00,0.697439
1281.00,0.698006
1282.00,0.698556
1283.00,0.699074
1284.00,0.699546
1285.00,0.699971
1286.00,0.700348
1287.00,0.700678
1288.00,0.700969
1289.00,0.701225
1290.00,0.701463
1291.00,0.701712
1292.00,0.702007
1293.00,0.702361
1294.00,0.702743
1295.00,0.703113
1296.00,0.703454
1297.00,0.703791
1298.00,0.704150
1299.00,0.704548
1300.00,0.704960
1301.00,0.705358
1302.00,0.705720
1303.00,0.706035
1304.00,0.706296
1305.00,0.706500
1306.00,0.706668
1307.00,0.706819
1308.00,0.706964
1309.00,0.707093
1310.00,0.707192
1311.00,0.707250
1312.00,0.707259
1313.00,0.707209
1314.00,0.707103
1315.00,0.706964
1316.00,0.706820
1317.00,0.706696
1318.00,0.706608
1319.00,0.706572
1320.00,0.706589
1321.00,0.706626
1322.00,0.706650
1323.00,0.706648
1324.00,0.706660
1325.00,0.706732
1326.00,0.706886
1327.00,0.707078
1328.00,0.707257
1329.00,0.707393
1330.00,0.707499
1331.00,0.707593
1332.00,0.707679
1333.00,0.707725
1334.00,0.707700
1335.00,0.707585
1336.00,0.707400
1337.00,0.707168
1338.00,0.706905
1339.00,0.706609
1340.00,0.706274
1341.00,0.705894
1342.00,0.705463
1343.00,0.704974
1344.00,0.704425
1345.00,0.703824
1346.00,0.703179
1347.00,0.702495
1348.00,0.701755
1349.00,0.700946
1350.00,0.700055
1351.00,0.699077
1352.00,0.698008
1353.00,0.696840
1354.00,0.695553
1355.00,0.694128
1356.00,0.692548
1357.00,0.690804
1358.00,0.688887
1359.00,0.686789
1360.00,0.684500
1361.00,0.682007
1362.00,0.679310
1363.00,0.676425
1364.00,0.673369
1365.00,0.670157
1366.00,0.666796
1367.00,0.663293
1368.00,0.659661
1369.00,0.655939
1370.00,0.652168
1371.00,0.648381
1372.00,0.644582
1373.00,0.640774
1374.00,0.636969
1375.00,0.633185
1376.00,0.629446
1377.00,0.625782
1378.00,0.622231
1379.00,0.618837
1380.00,0.615635
1381.00,0.612655
1382.00,0.609926
1383.00,0.607471
1384.00,0.605305
1385.00,0.603441
1386.00,0.601886
1387.00,0.600631
1388.00,0.599663
1389.00,0.598958
1390.00,0.598459
1391.00,0.598107
1392.00,0.597844
1393.00,0.597624
1394.00,0.597399
1395.00,0.597129
1396.00,0.596788
1397.00,0.596352
1398.00,0.595811
1399.00,0.595179
1400.00,0.594474
1401.00,0.593710
1402.00,0.592892
1403.00,0.592023
1404.00,0.591119
1405.00,0.590220
1406.00,0.589369
1407.00,0.588598
1408.00,0.587914
1409.00,0.587321
1410.00,0.586819
1411.00,0.586409
1412.00,0.586090
1413.00,0.585855
1414.00,0.585683
1415.00,0.585550
1416.00,0.585441
1417.00,0.585361
1418.00,0.585316
1419.00,0.585310
1420.00,0.585329
1421.00,0.585357
1422.00,0.585389
1423.00,0.585433
1424.00,0.585503
1425.00,0.585610
1426.00,0.585758
1427.00,0.585952
1428.00,0.586199
1429.00,0.586500
1430.00,0.586860
1431.00,0.587282
1432.00,0.587764
1433.00,0.588306
1434.00,0.588904
1435.00,0.589556
1436.00,0.590254
1437.00,0.590991
1438.00,0.591750
1439.00,0.592512
1440.00,0.593267
1441.00,0.594015
1442.00,0.594758
1443.00,0.595494
1444.00,0.596213
1445.00,0.596901
1446.00,0.597548
1447.00,0.598154
1448.00,0.598718
1449.00,0.599239
1450.00,0.599717
1451.00,0.600152
1452.00,0.600543
1453.00,0.600894
1454.00,0.601210
1455.00,0.601492
1456.00,0.601741
1457.00,0.601953
1458.00,0.602130
1459.00,0.602273
1460.00,0.602382
1461.00,0.602451
1462.00,0.602462
1463.00,0.602394
1464.00,0.602220
1465.00,0.601911
1466.00,0.601437
1467.00,0.600772
1468.00,0.599909
1469.00,0.598844
1470.00,0.597574
1471.00,0.596113
1472.00,0.594473
1473.00,0.592676
1474.00,0.590763
1475.00,0.588777
1476.00,0.586766
1477.00,0.584787
1478.00,0.582900
1479.00,0.581150
1480.00,0.579555
1481.00,0.578125
1482.00,0.576872
1483.00,0.575798
1484.00,0.574904
1485.00,0.574174
1486.00,0.573550
1487.00,0.572969
1488.00,0.572383
1489.00,0.571777
1490.00,0.571141
1491.00,0.570459
1492.00,0.569708
1493.00,0.568858
1494.00,0.567892
