wavelength_nm,reflectance
350.00,0.011269
351.00,0.011270
352.00,0.011334
353.00,0.011401
354.00,0.011472
355.00,0.011553
356.00,0.011648
357.00,0.011766
358.00,0.011913
359.00,0.012099
360.00,0.012334
361.00,0.012622
362.00,0.012946
363.00,0.013281
364.00,0.013607
365.00,0.013909
366.00,0.014175
367.00,0.014391
368.00,0.014547
369.00,0.014630
370.00,0.014632
371.00,0.014561
372.00,0.014427
373.00,0.014240
374.00,0.014005
375.00,0.013723
376.00,0.013399
377.00,0.013046
378.00,0.012678
379.00,0.012307
380.00,0.011932
381.00,0.011549
382.00,0.011155
383.00,0.010758
384.00,0.010367
385.00,0.009990
386.00,0.009624
387.00,0.009265
388.00,0.008911
389.00,0.008568
390.00,0.008246
391.00,0.007954
392.00,0.007694
393.00,0.007470
394.00,0.007280
395.00,0.007107
396.00,0.006931
397.00,0.006738
398.00,0.006541
399.00,0.006361
400.00,0.006215
401.00,0.006098
402.00,0.006002
403.00,0.005921
404.00,0.005848
405.00,0.005776
406.00,0.005701
407.00,0.005625
408.00,0.005551
409.00,0.005483
410.00,0.005421
411.00,0.005364
412.00,0.005311
413.00,0.005262
414.00,0.005214
415.00,0.005166
416.00,0.005120
417.00,0.005079
418.00,0.005045
419.00,0.005016
420.00,0.004991
421.00,0.004966
422.00,0.004941
423.00,0.004911
424.00,0.004877
425.00,0.004842
426.00,0.004809
427.00,0.004781
428.00,0.004756
429.00,0.004733
430.00,0.004709
431.00,0.004686
432.00,0.004666
433.00,0.004652
434.00,0.004644
435.00,0.004641
436.00,0.004642
437.00,0.004645
438.00,0.004646
439.00,0.004643
440.00,0.004636
441.00,0.004623
442.00,0.004606
443.00,0.004588
444.00,0.004574
445.00,0.004568
446.00,0.004567
447.00,0.004565
448.00,0.004561
449.00,0.004552
450.00,0.004542
451.00,0.004530
452.00,0.004522
453.00,0.004522
454.00,0.004534
455.00,0.004552
456.00,0.004568
457.00,0.004576
458.00,0.004577
459.00,0.004575
460.00,0.004572
461.00,0.004574
462.00,0.004585
463.00,0.004608
464.00,0.004640
465.00,0.004675
466.00,0.004707
467.00,0.004739
468.00,0.004773
469.00,0.004811
470.00,0.004853
471.00,0.004898
472.00,0.004944
473.00,0.004990
474.00,0.005037
475.00,0.005085
476.00,0.005133
477.00,0.005180
478.00,0.005226
479.00,0.005269
480.00,0.005309
481.00,0.005346
482.00,0.005378
483.00,0.005408
484.00,0.005436
485.00,0.005461
486.00,0.005484
487.00,0.005506
488.00,0.005526
489.00,0.005543
490.00,0.005557
491.00,0.005569
492.00,0.005584
493.00,0.005601
494.00,0.005619
495.00,0.005632
496.00,0.005636
497.00,0.005634
498.00,0.005629
499.00,0.005621
500.00,0.005614
501.00,0.005606
502.00,0.005599
503.00,0.005592
504.00,0.005582
505.00,0.005570
506.00,0.005557
507.00,0.005547
508.00,0.005542
509.00,0.005541
510.00,0.005541
511.00,0.005538
512.00,0.005536
513.00,0.005539
514.00,0.005549
515.00,0.005567
516.00,0.005592
517.00,0.005623
518.00,0.005659
519.00,0.005698
520.00,0.005740
521.00,0.005789
522.00,0.005847
523.00,0.005920
524.00,0.006006
525.00,0.006103
526.00,0.006211
527.00,0.006328
528.00,0.006455
529.00,0.006591
530.00,0.006737
531.00,0.006892
532.00,0.007057
533.00,0.007230
534.00,0.007408
535.00,0.007589
536.00,0.007774
537.00,0.007961
538.00,0.008149
539.00,0.008337
540.00,0.008521
541.00,0.008698
542.00,0.008867
543.00,0.009030
544.00,0.009186
545.00,0.009336
546.00,0.009480
547.00,0.009619
548.00,0.009754
549.00,0.009885
550.00,0.010015
551.00,0.010145
552.00,0.010280
553.00,0.010421
554.00,0.010573
555.00,0.010737
556.00,0.010916
557.00,0.011114
558.00,0.011335
559.00,0.011584
560.00,0.011864
561.00,0.012180
562.00,0.012535
563.00,0.012932
564.00,0.013377
565.00,0.013873
566.00,0.014426
567.00,0.015043
568.00,0.015730
569.00,0.016490
570.00,0.017327
571.00,0.018244
572.00,0.019243
573.00,0.020326
574.00,0.021493
575.00,0.022743
576.00,0.024076
577.00,0.025488
578.00,0.026971
579.00,0.028513
580.00,0.030104
581.00,0.031728
582.00,0.033372
583.00,0.035020
584.00,0.036655
585.00,0.038263
586.00,0.039828
587.00,0.041334
588.00,0.042763
589.00,0.044101
590.00,0.045339
591.00,0.046469
592.00,0.047484
593.00,0.048384
594.00,0.049171
595.00,0.049846
596.00,0.050417
597.00,0.050890
598.00,0.051273
599.00,0.051574
600.00,0.051803
601.00,0.051969
602.00,0.052079
603.00,0.052142
604.00,0.052165
605.00,0.052157
606.00,0.052127
607.00,0.052085
608.00,0.052035
609.00,0.051983
610.00,0.051933
611.00,0.051887
612.00,0.051846
613.00,0.051810
614.00,0.051780
615.00,0.051758
616.00,0.051743
617.00,0.051733
618.00,0.051726
619.00,0.051719
620.00,0.051711
621.00,0.051701
622.00,0.051688
623.00,0.051669
624.00,0.051642
625.00,0.051603
626.00,0.051551
627.00,0.051484
628.00,0.051400
629.00,0.051298
630.00,0.051179
631.00,0.051043
632.00,0.050889
633.00,0.050718
634.00,0.050529
635.00,0.050325
636.00,0.050107
637.00,0.049880
638.00,0.049643
639.00,0.049399
640.00,0.049151
641.00,0.048902
642.00,0.048656
643.00,0.048419
644.00,0.048194
645.00,0.047985
646.00,0.047797
647.00,0.047634
648.00,0.047500
649.00,0.047399
650.00,0.047337
651.00,0.047314
652.00,0.047336
653.00,0.047406
654.00,0.047529
655.00,0.047711
656.00,0.047954
657.00,0.048262
658.00,0.048638
659.00,0.049085
660.00,0.049604
661.00,0.050199
662.00,0.050875
663.00,0.051638
664.00,0.052492
665.00,0.053441
666.00,0.054487
667.00,0.055635
668.00,0.056887
669.00,0.058249
670.00,0.059724
671.00,0.061317
672.00,0.063031
673.00,0.064871
674.00,0.066840
675.00,0.068946
676.00,0.071193
677.00,0.073583
678.00,0.076121
679.00,0.078807
680.00,0.081646
681.00,0.084642
682.00,0.087796
683.00,0.091111
684.00,0.094585
685.00,0.098219
686.00,0.102016
687.00,0.105977
688.00,0.110105
689.00,0.114395
690.00,0.118842
691.00,0.123443
692.00,0.128190
693.00,0.133079
694.00,0.138101
695.00,0.143254
696.00,0.148533
697.00,0.153933
698.00,0.159443
699.00,0.165050
700.00,0.170742
701.00,0.176507
702.00,0.182335
703.00,0.188215
704.00,0.194137
705.00,0.200091
706.00,0.206069
707.00,0.212060
708.00,0.218049
709.00,0.224026
710.00,0.229975
711.00,0.235880
712.00,0.241726
713.00,0.247506
714.00,0.253213
715.00,0.258838
716.00,0.264374
717.00,0.269812
718.00,0.275142
719.00,0.280355
720.00,0.285442
721.00,0.290393
722.00,0.295209
723.00,0.299890
724.00,0.304436
725.00,0.308842
726.00,0.313101
727.00,0.317210
728.00,0.321168
729.00,0.324981
730.00,0.328652
731.00,0.332184
732.00,0.335577
733.00,0.338833
734.00,0.341950
735.00,0.344928
736.00,0.347766
737.00,0.350470
738.00,0.353048
739.00,0.355506
740.00,0.357848
741.00,0.360075
742.00,0.362190
743.00,0.364199
744.00,0.366108
745.00,0.367920
746.00,0.369631
747.00,0.371235
748.00,0.372729
749.00,0.374128
750.00,0.375454
751.00,0.376721
752.00,0.377934
753.00,0.379092
754.00,0.380191
755.00,0.381229
756.00,0.382201
757.00,0.383103
758.00,0.383940
759.00,0.384722
760.00,0.385455
761.00,0.386144
762.00,0.386791
763.00,0.387399
764.00,0.387971
765.00,0.388507
766.00,0.389008
767.00,0.389477
768.00,0.389918
769.00,0.390332
770.00,0.390722
771.00,0.391088
772.00,0.391431
773.00,0.391753
774.00,0.392053
775.00,0.392332
776.00,0.392594
777.00,0.392845
778.00,0.393089
779.00,0.393321
780.00,0.393538
781.00,0.393738
782.00,0.393922
783.00,0.394094
784.00,0.394259
785.00,0.394418
786.00,0.394572
787.00,0.394721
788.00,0.394865
789.00,0.395003
790.00,0.395133
791.00,0.395254
792.00,0.395367
793.00,0.395470
794.00,0.395569
795.00,0.395667
796.00,0.395768
797.00,0.395868
798.00,0.395959
799.00,0.396039
800.00,0.396112
801.00,0.396185
802.00,0.396264
803.00,0.396346
804.00,0.396426
805.00,0.396502
806.00,0.396574
807.00,0.396643
808.00,0.396711
809.00,0.396781
810.00,0.396856
811.00,0.396937
812.00,0.397021
813.00,0.397101
814.00,0.397174
815.00,0.397242
816.00,0.397309
817.00,0.397377
818.00,0.397448
819.00,0.397518
820.00,0.397587
821.00,0.397654
822.00,0.397721
823.00,0.397789
824.00,0.397860
825.00,0.397938
826.00,0.398025
827.00,0.398116
828.00,0.398202
829.00,0.398278
830.00,0.398346
831.00,0.398407
832.00,0.398465
833.00,0.398521
834.00,0.398575
835.00,0.398629
836.00,0.398683
837.00,0.398737
838.00,0.398794
839.00,0.398849
840.00,0.398902
841.00,0.398949
842.00,0.398990
843.00,0.399025
844.00,0.399054
845.00,0.399076
846.00,0.399091
847.00,0.399100
848.00,0.399102
849.00,0.399095
850.00,0.399078
851.00,0.399050
852.00,0.399010
853.00,0.398959
854.00,0.398895
855.00,0.398820
856.00,0.398732
857.00,0.398627
858.00,0.398496
859.00,0.398341
860.00,0.398178
861.00,0.398030
862.00,0.397919
863.00,0.397860
864.00,0.397866
865.00,0.397946
866.00,0.398083
867.00,0.398259
868.00,0.398455
869.00,0.398659
870.00,0.398859
871.00,0.399048
872.00,0.399219
873.00,0.399370
874.00,0.399498
875.00,0.399600
876.00,0.399674
877.00,0.399719
878.00,0.399738
879.00,0.399740
880.00,0.399730
881.00,0.399713
882.00,0.399695
883.00,0.399678
884.00,0.399661
885.00,0.399640
886.00,0.399612
887.00,0.399578
888.00,0.399537
889.00,0.399489
890.00,0.399439
891.00,0.399391
892.00,0.399349
893.00,0.399314
894.00,0.399285
895.00,0.399262
896.00,0.399245
897.00,0.399233
898.00,0.399228
899.00,0.399228
900.00,0.399233
901.00,0.399242
902.00,0.399257
903.00,0.399282
904.00,0.399320
905.00,0.399368
906.00,0.399424
907.00,0.399484
908.00,0.399545
909.00,0.399604
910.00,0.399658
911.00,0.399712
912.00,0.399770
913.00,0.399834
914.00,0.399902
915.00,0.399968
916.00,0.400028
917.00,0.400085
918.00,0.400143
919.00,0.400204
920.00,0.400266
921.00,0.400323
922.00,0.400371
923.00,0.400407
924.00,0.400427
925.00,0.400430
926.00,0.400426
927.00,0.400428
928.00,0.400445
929.00,0.400473
930.00,0.400502
931.00,0.400525
932.00,0.400544
933.00,0.400562
934.00,0.400582
935.00,0.400602
936.00,0.400622
937.00,0.400640
938.00,0.400658
939.00,0.400678
940.00,0.400699
941.00,0.400723
942.00,0.400751
943.00,0.400781
944.00,0.400812
945.00,0.400839
946.00,0.400858
947.00,0.400872
948.00,0.400881
949.00,0.400889
950.00,0.400897
951.00,0.400904
952.00,0.400912
953.00,0.400918
954.00,0.400922
955.00,0.400922
956.00,0.400920
957.00,0.400918
958.00,0.400918
959.00,0.400921
960.00,0.400925
961.00,0.400930
962.00,0.400933
963.00,0.400934
964.00,0.400930
965.00,0.400923
966.00,0.400912
967.00,0.400899
968.00,0.400887
969.00,0.400877
970.00,0.400872
971.00,0.400869
972.00,0.400867
973.00,0.400864
974.00,0.400856
975.00,0.400844
976.00,0.400825
977.00,0.400805
978.00,0.400789
979.00,0.400781
980.00,0.400777
981.00,0.400771
982.00,0.400760
983.00,0.400745
984.00,0.400729
985.00,0.400715
986.00,0.400702
987.00,0.400687
988.00,0.400669
989.00,0.400652
990.00,0.400636
991.00,0.400624
992.00,0.400616
993.00,0.400612
994.00,0.400610
995.00,0.400602
996.00,0.400577
997.00,0.400529
998.00,0.400473
999.00,0.400430
1000.00,0.400415
1001.00,0.400428
1002.00,0.400464
1003.00,0.400515
1004.00,0.400566
1005.00,0.400596
1006.00,0.400591
1007.00,0.400554
1008.00,0.400491
1009.00,0.400412
1010.00,0.400332
1011.00,0.400267
1012.00,0.400229
1013.00,0.400213
1014.00,0.400207
1015.00,0.400201
1016.00,0.400192
1017.00,0.400193
1018.00,0.400217
1019.00,0.400269
1020.00,0.400324
1021.00,0.400357
1022.00,0.400355
1023.00,0.400335
1024.00,0.400318
1025.00,0.400316
1026.00,0.400319
1027.00,0.400315
1028.00,0.400301
1029.00,0.400289
1030.00,0.400296
1031.00,0.400328
1032.00,0.400371
1033.00,0.400411
1034.00,0.400439
1035.00,0.400461
1036.00,0.400491
1037.00,0.400534
1038.00,0.400581
1039.00,0.400625
1040.00,0.400660
1041.00,0.400689
1042.00,0.400714
1043.00,0.400740
1044.00,0.400774
1045.00,0.400823
1046.00,0.400888
1047.00,0.400955
1048.00,0.401006
1049.00,0.401033
1050.00,0.401041
1051.00,0.401037
1052.00,0.401031
1053.00,0.401027
1054.00,0.401032
1055.00,0.401045
1056.00,0.401055
1057.00,0.401050
1058.00,0.401025
1059.00,0.400996
1060.00,0.400979
1061.00,0.400984
1062.00,0.401001
1063.00,0.401019
1064.00,0.401028
1065.00,0.401024
1066.00,0.401005
1067.00,0.400970
1068.00,0.400934
1069.00,0.400911
1070.00,0.400909
1071.00,0.400919
1072.00,0.400927
1073.00,0.400927
1074.00,0.400924
1075.00,0.400922
1076.00,0.400924
1077.00,0.400922
1078.00,0.400909
1079.00,0.400882
1080.00,0.400845
1081.00,0.400806
1082.00,0.400771
1083.00,0.400744
1084.00,0.400729
1085.00,0.400726
1086.00,0.400728
1087.00,0.400723
1088.00,0.400704
1089.00,0.400670
1090.00,0.400622
1091.00,0.400561
1092.00,0.400494
1093.00,0.400431
1094.00,0.400373
1095.00,0.400317
1096.00,0.400256
1097.00,0.400183
1098.00,0.400095
1099.00,0.399985
1100.00,0.399852
1101.00,0.399692
1102.00,0.399508
1103.00,0.399294
1104.00,0.399044
1105.00,0.398746
1106.00,0.398395
1107.00,0.397995
1108.00,0.397551
1109.00,0.397060
1110.00,0.396509
1111.00,0.395879
1112.00,0.395159
1113.00,0.394350
1114.00,0.393456
1115.00,0.392475
1116.00,0.391401
1117.00,0.390226
1118.00,0.388952
1119.00,0.387608
1120.00,0.386226
1121.00,0.384837
1122.00,0.383463
1123.00,0.382130
1124.00,0.380867
1125.00,0.379710
1126.00,0.378697
1127.00,0.377868
1128.00,0.377253
1129.00,0.376886
1130.00,0.376786
1131.00,0.376947
1132.00,0.377356
1133.00,0.377998
1134.00,0.378843
1135.00,0.379860
1136.00,0.381012
1137.00,0.382243
1138.00,0.383498
1139.00,0.384728
1140.00,0.385905
1141.00,0.387003
1142.00,0.388001
1143.00,0.388887
1144.00,0.389653
1145.00,0.390291
1146.00,0.390804
1147.00,0.391193
1148.00,0.391467
1149.00,0.391647
1150.00,0.391759
1151.00,0.391818
1152.00,0.391824
1153.00,0.391778
1154.00,0.391678
1155.00,0.391535
1156.00,0.391358
1157.00,0.391153
1158.00,0.390926
1159.00,0.390680
1160.00,0.390419
1161.00,0.390148
1162.00,0.389873
1163.00,0.389599
1164.00,0.389331
1165.00,0.389075
1166.00,0.388835
1167.00,0.388611
1168.00,0.388404
1169.00,0.388217
1170.00,0.388057
1171.00,0.387931
1172.00,0.387846
1173.00,0.387807
1174.00,0.387817
1175.00,0.387880
1176.00,0.387991
1177.00,0.388149
1178.00,0.388350
1179.00,0.388594
1180.00,0.388878
1181.00,0.389203
1182.00,0.389567
1183.00,0.389973
1184.00,0.390416
1185.00,0.390887
1186.00,0.391372
1187.00,0.391863
1188.00,0.392353
1189.00,0.392837
1190.00,0.393311
1191.00,0.393776
1192.00,0.394231
1193.00,0.394678
1194.00,0.395111
1195.00,0.395526
1196.00,0.395920
1197.00,0.396291
1198.00,0.396637
1199.00,0.396958
1200.00,0.397260
1201.00,0.397549
1202.00,0.397828
1203.00,0.398098
1204.00,0.398358
1205.00,0.398604
1206.00,0.398836
1207.00,0.399051
1208.00,0.399250
1209.00,0.399434
1210.00,0.399607
1211.00,0.399773
1212.00,0.399934
1213.00,0.400094
1214.00,0.400253
1215.00,0.400402
1216.00,0.400532
1217.00,0.400639
1218.00,0.400731
1219.00,0.400820
1220.00,0.400915
1221.00,0.401016
1222.00,0.401124
1223.00,0.401236
1224.00,0.401346
1225.00,0.401448
1226.00,0.401538
1227.00,0.401618
1228.00,0.401693
1229.00,0.401766
1230.00,0.401842
1231.00,0.401925
1232.00,0.402014
1233.00,0.402104
1234.00,0.402184
1235.00,0.402251
1236.00,0.402311
1237.00,0.402373
1238.00,0.402440
1239.00,0.402510
1240.00,0.402577
1241.00,0.402640
1242.00,0.402695
1243.00,0.402742
1244.00,0.402780
1245.00,0.402812
1246.00,0.402843
1247.00,0.402875
1248.00,0.402908
1249.00,0.402945
1250.00,0.402985
1251.00,0.403026
1252.00,0.403065
1253.00,0.403101
1254.00,0.403131
1255.00,0.403156
1256.00,0.403174
1257.00,0.403189
1258.00,0.403201
1259.00,0.403211
1260.00,0.403219
1261.00,0.403225
1262.00,0.403228
1263.00,0.403228
1264.00,0.403228
1265.00,0.403228
1266.00,0.403228
1267.00,0.403231
1268.00,0.403236
1269.00,0.403242
1270.00,0.403251
1271.00,0.403260
1272.00,0.403266
1273.00,0.403264
1274.00,0.403251
1275.00,0.403229
1276.00,0.403204
1277.00,0.403174
1278.00,0.403140
1279.00,0.403100
1280.00,0.403052
1281.00,0.402999
1282.00,0.402942
1283.00,0.402884
1284.00,0.402826
1285.00,0.402766
1286.00,0.402707
1287.00,0.402652
1288.00,0.402603
1289.00,0.402563
1290.00,0.402535
1291.00,0.402519
1292.00,0.402515
1293.00,0.402515
1294.00,0.402512
1295.00,0.402500
1296.00,0.402478
1297.00,0.402447
1298.00,0.402405
1299.00,0.402353
1300.00,0.402291
1301.00,0.402218
1302.00,0.402132
1303.00,0.402033
1304.00,0.401920
1305.00,0.401798
1306.00,0.401671
1307.00,0.401542
1308.00,0.401415
1309.00,0.401290
1310.00,0.401168
1311.00,0.401050
1312.00,0.400933
1313.00,0.400817
1314.00,0.400704
1315.00,0.400595
1316.00,0.400492
1317.00,0.400389
1318.00,0.400281
1319.00,0.400166
1320.00,0.400040
1321.00,0.399899
1322.00,0.399745
1323.00,0.399586
1324.00,0.399431
1325.00,0.399287
1326.00,0.399157
1327.00,0.399043
1328.00,0.398942
1329.00,0.398849
1330.00,0.398758
1331.00,0.398663
1332.00,0.398559
1333.00,0.398443
1334.00,0.398311
1335.00,0.398160
1336.00,0.397986
1337.00,0.397782
1338.00,0.397540
1339.00,0.397250
1340.00,0.396908
1341.00,0.396518
1342.00,0.396088
1343.00,0.395621
1344.00,0.395122
1345.00,0.394593
1346.00,0.394038
1347.00,0.393464
1348.00,0.392874
1349.00,0.392274
1350.00,0.391669
1351.00,0.391059
1352.00,0.390451
1353.00,0.389851
1354.00,0.389264
1355.00,0.388699
1356.00,0.388159
1357.00,0.387650
1358.00,0.387176
1359.00,0.386742
1360.00,0.386356
1361.00,0.386020
1362.00,0.385736
1363.00,0.385505
1364.00,0.385326
1365.00,0.385190
1366.00,0.385090
1367.00,0.385016
1368.00,0.384960
1369.00,0.384911
1370.00,0.384863
1371.00,0.384813
1372.00,0.384759
1373.00,0.384701
1374.00,0.384637
1375.00,0.384566
1376.00,0.384488
1377.00,0.384406
1378.00,0.384322
1379.00,0.384239
1380.00,0.384157
1381.00,0.384074
1382.00,0.383989
1383.00,0.383902
1384.00,0.383809
1385.00,0.383710
1386.00,0.383600
1387.00,0.383476
1388.00,0.383334
1389.00,0.383172
1390.00,0.382987
1391.00,0.382779
1392.00,0.382550
1393.00,0.382303
1394.00,0.382039
1395.00,0.381756
1396.00,0.381449
1397.00,0.381119
1398.00,0.380770
1399.00,0.380411
1400.00,0.380046
1401.00,0.379684
1402.00,0.379330
1403.00,0.378991
1404.00,0.378672
1405.00,0.378379
1406.00,0.378116
1407.00,0.377880
1408.00,0.377668
1409.00,0.377478
1410.00,0.377307
1411.00,0.377155
1412.00,0.377021
1413.00,0.376911
1414.00,0.376833
1415.00,0.376792
1416.00,0.376792
1417.00,0.376835
1418.00,0.376925
1419.00,0.377063
1420.00,0.377251
1421.00,0.377488
1422.00,0.377769
1423.00,0.378090
1424.00,0.378446
1425.00,0.378832
1426.00,0.379245
1427.00,0.379679
1428.00,0.380128
1429.00,0.380581
1430.00,0.381032
1431.00,0.381478
1432.00,0.381916
1433.00,0.382343
1434.00,0.382761
1435.00,0.383174
1436.00,0.383584
1437.00,0.383990
1438.00,0.384393
1439.00,0.384792
1440.00,0.385189
1441.00,0.385582
1442.00,0.385972
1443.00,0.386357
1444.00,0.386737
1445.00,0.387108
1446.00,0.387471
1447.00,0.387822
1448.00,0.388161
1449.00,0.388489
1450.00,0.388805
1451.00,0.389111
1452.00,0.389402
1453.00,0.389673
1454.00,0.389923
1455.00,0.390157
1456.00,0.390378
1457.00,0.390592
1458.00,0.390801
1459.00,0.391008
1460.00,0.391216
1461.00,0.391424
1462.00,0.391636
1463.00,0.391852
1464.00,0.392074
1465.00,0.392303
1466.00,0.392539
1467.00,0.392781
1468.00,0.393025
1469.00,0.393271
1470.00,0.393515
1471.00,0.393755
1472.00,0.393991
1473.00,0.394223
1474.00,0.394453
1475.00,0.394682
1476.00,0.394909
1477.00,0.395134
1478.00,0.395357
1479.00,0.395579
1480.00,0.395799
1481.00,0.396016
1482.00,0.396227
1483.00,0.396430
1484.00,0.396621
1485.00,0.396796
1486.00,0.396953
1487.00,0.397091
1488.00,0.397215
1489.00,0.397331
1490.00,0.397442
1491.00,0.397547
1492.00,0.397646
1493.00,0.397737
1494.00,0.397821
