wavelength_nm,reflectance
350.00,0.067975
351.00,0.067980
352.00,0.067984
353.00,0.068100
354.00,0.068259
355.00,0.068404
356.00,0.068529
357.00,0.068655
358.00,0.068816
359.00,0.069046
360.00,0.069356
361.00,0.069748
362.00,0.070219
363.00,0.070735
364.00,0.071247
365.00,0.071712
366.00,0.072158
367.00,0.072659
368.00,0.073279
369.00,0.074022
370.00,0.074857
371.00,0.075752
372.00,0.076692
373.00,0.077669
374.00,0.078680
375.00,0.079726
376.00,0.080816
377.00,0.081957
378.00,0.083170
379.00,0.084480
380.00,0.085909
381.00,0.087446
382.00,0.089060
383.00,0.090721
384.00,0.092427
385.00,0.094186
386.00,0.096010
387.00,0.097903
388.00,0.099864
389.00,0.101895
390.00,0.104002
391.00,0.106194
392.00,0.108477
393.00,0.110839
394.00,0.113251
395.00,0.115691
396.00,0.118155
397.00,0.120654
398.00,0.123198
399.00,0.125787
400.00,0.128412
401.00,0.131068
402.00,0.133753
403.00,0.136470
404.00,0.139218
405.00,0.141990
406.00,0.144773
407.00,0.147553
408.00,0.150321
409.00,0.153070
410.00,0.155792
411.00,0.158483
412.00,0.161141
413.00,0.163763
414.00,0.166343
415.00,0.168868
416.00,0.171330
417.00,0.173727
418.00,0.176065
419.00,0.178349
420.00,0.180575
421.00,0.182736
422.00,0.184825
423.00,0.186843
424.00,0.188795
425.00,0.190688
426.00,0.192526
427.00,0.194314
428.00,0.196055
429.00,0.197749
430.00,0.199391
431.00,0.200975
432.00,0.202506
433.00,0.203993
434.00,0.205443
435.00,0.206858
436.00,0.208237
437.00,0.209577
438.00,0.210882
439.00,0.212157
440.00,0.213408
441.00,0.214637
442.00,0.215847
443.00,0.217037
444.00,0.218205
445.00,0.219348
446.00,0.220463
447.00,0.221555
448.00,0.222635
449.00,0.223712
450.00,0.224787
451.00,0.225852
452.00,0.226901
453.00,0.227935
454.00,0.228957
455.00,0.229972
456.00,0.230979
457.00,0.231977
458.00,0.232966
459.00,0.233948
460.00,0.234929
461.00,0.235914
462.00,0.236898
463.00,0.237874
464.00,0.238836
465.00,0.239782
466.00,0.240718
467.00,0.241645
468.00,0.242567
469.00,0.243485
470.00,0.244400
471.00,0.245312
472.00,0.246219
473.00,0.247118
474.00,0.248012
475.00,0.248902
476.00,0.249790
477.00,0.250677
478.00,0.251561
479.00,0.252442
480.00,0.253322
481.00,0.254203
482.00,0.255088
483.00,0.255977
484.00,0.256868
485.00,0.257762
486.00,0.258658
487.00,0.259557
488.00,0.260462
489.00,0.261374
490.00,0.262292
491.00,0.263217
492.00,0.264149
493.00,0.265088
494.00,0.266035
495.00,0.266987
496.00,0.267946
497.00,0.268910
498.00,0.269877
499.00,0.270847
500.00,0.271818
501.00,0.272792
502.00,0.273771
503.00,0.274758
504.00,0.275752
505.00,0.276749
506.00,0.277748
507.00,0.278750
508.00,0.279758
509.00,0.280776
510.00,0.281803
511.00,0.282835
512.00,0.283870
513.00,0.284908
514.00,0.285951
515.00,0.287000
516.00,0.288058
517.00,0.289127
518.00,0.290208
519.00,0.291300
520.00,0.292397
521.00,0.293497
522.00,0.294601
523.00,0.295712
524.00,0.296835
525.00,0.297970
526.00,0.299115
527.00,0.300269
528.00,0.301430
529.00,0.302598
530.00,0.303774
531.00,0.304956
532.00,0.306144
533.00,0.307336
534.00,0.308534
535.00,0.309738
536.00,0.310951
537.00,0.312172
538.00,0.313400
539.00,0.314632
540.00,0.315870
541.00,0.317112
542.00,0.318359
543.00,0.319613
544.00,0.320873
545.00,0.322141
546.00,0.323414
547.00,0.324691
548.00,0.325967
549.00,0.327244
550.00,0.328525
551.00,0.329812
552.00,0.331105
553.00,0.332401
554.00,0.333698
555.00,0.334995
556.00,0.336296
557.00,0.337602
558.00,0.338914
559.00,0.340229
560.00,0.341548
561.00,0.342870
562.00,0.344196
563.00,0.345525
564.00,0.346858
565.00,0.348189
566.00,0.349518
567.00,0.350845
568.00,0.352173
569.00,0.353503
570.00,0.354836
571.00,0.356170
572.00,0.357505
573.00,0.358839
574.00,0.360173
575.00,0.361509
576.00,0.362844
577.00,0.364176
578.00,0.365504
579.00,0.366829
580.00,0.368149
581.00,0.369468
582.00,0.370784
583.00,0.372094
584.00,0.373396
585.00,0.374693
586.00,0.375990
587.00,0.377294
588.00,0.378604
589.00,0.379916
590.00,0.381226
591.00,0.382534
592.00,0.383840
593.00,0.385146
594.00,0.386453
595.00,0.387767
596.00,0.389091
597.00,0.390424
598.00,0.391763
599.00,0.393106
600.00,0.394456
601.00,0.395820
602.00,0.397206
603.00,0.398612
604.00,0.400036
605.00,0.401474
606.00,0.402919
607.00,0.404362
608.00,0.405795
609.00,0.407214
610.00,0.408618
611.00,0.410003
612.00,0.411376
613.00,0.412748
614.00,0.414126
615.00,0.415510
616.00,0.416892
617.00,0.418263
618.00,0.419624
619.00,0.420979
620.00,0.422332
621.00,0.423685
622.00,0.425035
623.00,0.426380
624.00,0.427724
625.00,0.429073
626.00,0.430431
627.00,0.431797
628.00,0.433166
629.00,0.434533
630.00,0.435895
631.00,0.437254
632.00,0.438608
633.00,0.439956
634.00,0.441297
635.00,0.442629
636.00,0.443954
637.00,0.445274
638.00,0.446591
639.00,0.447907
640.00,0.449223
641.00,0.450537
642.00,0.451852
643.00,0.453168
644.00,0.454485
645.00,0.455802
646.00,0.457117
647.00,0.458428
648.00,0.459733
649.00,0.461032
650.00,0.462325
651.00,0.463611
652.00,0.464892
653.00,0.466167
654.00,0.467434
655.00,0.468691
656.00,0.469936
657.00,0.471170
658.00,0.472400
659.00,0.473632
660.00,0.474862
661.00,0.476085
662.00,0.477295
663.00,0.478493
664.00,0.479684
665.00,0.480872
666.00,0.482059
667.00,0.483247
668.00,0.484434
669.00,0.485619
670.00,0.486799
671.00,0.487970
672.00,0.489133
673.00,0.490288
674.00,0.491439
675.00,0.492586
676.00,0.493732
677.00,0.494876
678.00,0.496019
679.00,0.497156
680.00,0.498284
681.00,0.499403
682.00,0.500516
683.00,0.501626
684.00,0.502734
685.00,0.503843
686.00,0.504955
687.00,0.506068
688.00,0.507177
689.00,0.508277
690.00,0.509368
691.00,0.510456
692.00,0.511540
693.00,0.512625
694.00,0.513710
695.00,0.514798
696.00,0.515884
697.00,0.516969
698.00,0.518047
699.00,0.519120
700.00,0.520188
701.00,0.521252
702.00,0.522312
703.00,0.523366
704.00,0.524414
705.00,0.525456
706.00,0.526496
707.00,0.527536
708.00,0.528578
709.00,0.529620
710.00,0.530664
711.00,0.531706
712.00,0.532737
713.00,0.533754
714.00,0.534757
715.00,0.535752
716.00,0.536746
717.00,0.537740
718.00,0.538735
719.00,0.539731
720.00,0.540725
721.00,0.541711
722.00,0.542681
723.00,0.543640
724.00,0.544593
725.00,0.545547
726.00,0.546498
727.00,0.547437
728.00,0.548355
729.00,0.549257
730.00,0.550154
731.00,0.551056
732.00,0.551962
733.00,0.552864
734.00,0.553755
735.00,0.554634
736.00,0.555501
737.00,0.556358
738.00,0.557205
739.00,0.558040
740.00,0.558863
741.00,0.559673
742.00,0.560473
743.00,0.561262
744.00,0.562042
745.00,0.562815
746.00,0.563585
747.00,0.564350
748.00,0.565111
749.00,0.565865
750.00,0.566611
751.00,0.567346
752.00,0.568069
753.00,0.568781
754.00,0.569484
755.00,0.570182
756.00,0.570876
757.00,0.571568
758.00,0.572258
759.00,0.572946
760.00,0.573629
761.00,0.574307
762.00,0.574979
763.00,0.575647
764.00,0.576314
765.00,0.576978
766.00,0.577640
767.00,0.578297
768.00,0.578950
769.00,0.579596
770.00,0.580235
771.00,0.580871
772.00,0.581511
773.00,0.582162
774.00,0.582821
775.00,0.583483
776.00,0.584142
777.00,0.584796
778.00,0.585444
779.00,0.586086
780.00,0.586722
781.00,0.587357
782.00,0.587993
783.00,0.588632
784.00,0.589273
785.00,0.589918
786.00,0.590565
787.00,0.591213
788.00,0.591862
789.00,0.592511
790.00,0.593164
791.00,0.593823
792.00,0.594484
793.00,0.595143
794.00,0.595797
795.00,0.596445
796.00,0.597093
797.00,0.597745
798.00,0.598404
799.00,0.599071
800.00,0.599746
801.00,0.600426
802.00,0.601108
803.00,0.601787
804.00,0.602464
805.00,0.603142
806.00,0.603823
807.00,0.604507
808.00,0.605193
809.00,0.605876
810.00,0.606559
811.00,0.607243
812.00,0.607929
813.00,0.608618
814.00,0.609311
815.00,0.610009
816.00,0.610710
817.00,0.611412
818.00,0.612114
819.00,0.612816
820.00,0.613522
821.00,0.614234
822.00,0.614948
823.00,0.615660
824.00,0.616362
825.00,0.617057
826.00,0.617750
827.00,0.618447
828.00,0.619148
829.00,0.619852
830.00,0.620556
831.00,0.621258
832.00,0.621955
833.00,0.622645
834.00,0.623330
835.00,0.624015
836.00,0.624704
837.00,0.625396
838.00,0.626085
839.00,0.626769
840.00,0.627448
841.00,0.628125
842.00,0.628805
843.00,0.629488
844.00,0.630173
845.00,0.630859
846.00,0.631543
847.00,0.632220
848.00,0.632888
849.00,0.633547
850.00,0.634202
851.00,0.634855
852.00,0.635504
853.00,0.636144
854.00,0.636768
855.00,0.637379
856.00,0.637981
857.00,0.638577
858.00,0.639170
859.00,0.639761
860.00,0.640349
861.00,0.640929
862.00,0.641496
863.00,0.642043
864.00,0.642572
865.00,0.643091
866.00,0.643608
867.00,0.644128
868.00,0.644657
869.00,0.645200
870.00,0.645755
871.00,0.646315
872.00,0.646876
873.00,0.647433
874.00,0.647984
875.00,0.648527
876.00,0.649060
877.00,0.649579
878.00,0.650084
879.00,0.650576
880.00,0.651062
881.00,0.651546
882.00,0.652026
883.00,0.652492
884.00,0.652938
885.00,0.653364
886.00,0.653773
887.00,0.654172
888.00,0.654557
889.00,0.654927
890.00,0.655279
891.00,0.655613
892.00,0.655937
893.00,0.656255
894.00,0.656566
895.00,0.656868
896.00,0.657157
897.00,0.657432
898.00,0.657694
899.00,0.657942
900.00,0.658176
901.00,0.658393
902.00,0.658592
903.00,0.658775
904.00,0.658947
905.00,0.659111
906.00,0.659268
907.00,0.659421
908.00,0.659568
909.00,0.659712
910.00,0.659857
911.00,0.660008
912.00,0.660168
913.00,0.660343
914.00,0.660539
915.00,0.660751
916.00,0.660968
917.00,0.661184
918.00,0.661402
919.00,0.661635
920.00,0.661897
921.00,0.662185
922.00,0.662489
923.00,0.662800
924.00,0.663113
925.00,0.663427
926.00,0.663740
927.00,0.664051
928.00,0.664362
929.00,0.664675
930.00,0.664986
931.00,0.665293
932.00,0.665591
933.00,0.665879
934.00,0.666153
935.00,0.666411
936.00,0.666655
937.00,0.666888
938.00,0.667114
939.00,0.667333
940.00,0.667543
941.00,0.667742
942.00,0.667931
943.00,0.668108
944.00,0.668275
945.00,0.668437
946.00,0.668598
947.00,0.668766
948.00,0.668931
949.00,0.669080
950.00,0.669197
951.00,0.669282
952.00,0.669338
953.00,0.669370
954.00,0.669376
955.00,0.669349
956.00,0.669283
957.00,0.669175
958.00,0.669021
959.00,0.668821
960.00,0.668579
961.00,0.668302
962.00,0.667999
963.00,0.667665
964.00,0.667289
965.00,0.666861
966.00,0.666384
967.00,0.665872
968.00,0.665334
969.00,0.664772
970.00,0.664179
971.00,0.663550
972.00,0.662901
973.00,0.662262
974.00,0.661660
975.00,0.661095
976.00,0.660557
977.00,0.660036
978.00,0.659540
979.00,0.659087
980.00,0.658693
981.00,0.658358
982.00,0.658071
983.00,0.657822
984.00,0.657606
985.00,0.657424
986.00,0.657275
987.00,0.657161
988.00,0.657088
989.00,0.657059
990.00,0.657071
991.00,0.657116
992.00,0.657183
993.00,0.657261
994.00,0.657339
995.00,0.657407
996.00,0.657491
997.00,0.657638
998.00,0.657884
999.00,0.658140
1000.00,0.658246
1001.00,0.658061
1002.00,0.657675
1003.00,0.657311
1004.00,0.657196
1005.00,0.657429
1006.00,0.657837
1007.00,0.658211
1008.00,0.658432
1009.00,0.658585
1010.00,0.658787
1011.00,0.659099
1012.00,0.659474
1013.00,0.659846
1014.00,0.660174
1015.00,0.660472
1016.00,0.660758
1017.00,0.661046
1018.00,0.661345
1019.00,0.661658
1020.00,0.661983
1021.00,0.662300
1022.00,0.662589
1023.00,0.662843
1024.00,0.663088
1025.00,0.663356
1026.00,0.663663
1027.00,0.663989
1028.00,0.664312
1029.00,0.664617
1030.00,0.664913
1031.00,0.665210
1032.00,0.665514
1033.00,0.665824
1034.00,0.666137
1035.00,0.666445
1036.00,0.666745
1037.00,0.667028
1038.00,0.667290
1039.00,0.667539
1040.00,0.667782
1041.00,0.668024
1042.00,0.668263
1043.00,0.668497
1044.00,0.668722
1045.00,0.668941
1046.00,0.669151
1047.00,0.669357
1048.00,0.669563
1049.00,0.669777
1050.00,0.670002
1051.00,0.670229
1052.00,0.670453
1053.00,0.670670
1054.00,0.670889
1055.00,0.671119
1056.00,0.671364
1057.00,0.671620
1058.00,0.671879
1059.00,0.672136
1060.00,0.672383
1061.00,0.672611
1062.00,0.672820
1063.00,0.673028
1064.00,0.673254
1065.00,0.673507
1066.00,0.673774
1067.00,0.674035
1068.00,0.674282
1069.00,0.674527
1070.00,0.674786
1071.00,0.675065
1072.00,0.675347
1073.00,0.675611
1074.00,0.675852
1075.00,0.676093
1076.00,0.676361
1077.00,0.676665
1078.00,0.676979
1079.00,0.677268
1080.00,0.677517
1081.00,0.677747
1082.00,0.677985
1083.00,0.678249
1084.00,0.678534
1085.00,0.678832
1086.00,0.679133
1087.00,0.679427
1088.00,0.679701
1089.00,0.679952
1090.00,0.680198
1091.00,0.680458
1092.00,0.680736
1093.00,0.681012
1094.00,0.681258
1095.00,0.681463
1096.00,0.681639
1097.00,0.681808
1098.00,0.681980
1099.00,0.682153
1100.00,0.682319
1101.00,0.682471
1102.00,0.682598
1103.00,0.682687
1104.00,0.682735
1105.00,0.682750
1106.00,0.682746
1107.00,0.682727
1108.00,0.682685
1109.00,0.682605
1110.00,0.682480
1111.00,0.682310
1112.00,0.682099
1113.00,0.681845
1114.00,0.681536
1115.00,0.681159
1116.00,0.680708
1117.00,0.680190
1118.00,0.679610
1119.00,0.678977
1120.00,0.678296
1121.00,0.677572
1122.00,0.676808
1123.00,0.676000
1124.00,0.675141
1125.00,0.674234
1126.00,0.673292
1127.00,0.672336
1128.00,0.671376
1129.00,0.670407
1130.00,0.669424
1131.00,0.668428
1132.00,0.667441
1133.00,0.666487
1134.00,0.665581
1135.00,0.664715
1136.00,0.663880
1137.00,0.663069
1138.00,0.662275
1139.00,0.661491
1140.00,0.660716
1141.00,0.659961
1142.00,0.659236
1143.00,0.658539
1144.00,0.657845
1145.00,0.657122
1146.00,0.656355
1147.00,0.655554
1148.00,0.654736
1149.00,0.653911
1150.00,0.653066
1151.00,0.652187
1152.00,0.651269
1153.00,0.650329
1154.00,0.649385
1155.00,0.648449
1156.00,0.647516
1157.00,0.646576
1158.00,0.645629
1159.00,0.644688
1160.00,0.643767
1161.00,0.642876
1162.00,0.642009
1163.00,0.641158
1164.00,0.640323
1165.00,0.639507
1166.00,0.638719
1167.00,0.637959
1168.00,0.637215
1169.00,0.636474
1170.00,0.635724
1171.00,0.634970
1172.00,0.634216
1173.00,0.633463
1174.00,0.632712
1175.00,0.631958
1176.00,0.631199
1177.00,0.630431
1178.00,0.629648
1179.00,0.628846
1180.00,0.628018
1181.00,0.627159
1182.00,0.626269
1183.00,0.625364
1184.00,0.624463
1185.00,0.623577
1186.00,0.622706
1187.00,0.621845
1188.00,0.620995
1189.00,0.620160
1190.00,0.619346
1191.00,0.618560
1192.00,0.617814
1193.00,0.617120
1194.00,0.616484
1195.00,0.615896
1196.00,0.615342
1197.00,0.614817
1198.00,0.614327
1199.00,0.613880
1200.00,0.613483
1201.00,0.613139
1202.00,0.612850
1203.00,0.612610
1204.00,0.612401
1205.00,0.612197
1206.00,0.611989
1207.00,0.611789
1208.00,0.611617
1209.00,0.611480
1210.00,0.611369
1211.00,0.611270
1212.00,0.611179
1213.00,0.611104
1214.00,0.611058
1215.00,0.611050
1216.00,0.611081
1217.00,0.611148
1218.00,0.611252
1219.00,0.611401
1220.00,0.611599
1221.00,0.611850
1222.00,0.612148
1223.00,0.612485
1224.00,0.612853
1225.00,0.613247
1226.00,0.613659
1227.00,0.614087
1228.00,0.614533
1229.00,0.615002
1230.00,0.615495
1231.00,0.616010
1232.00,0.616547
1233.00,0.617103
1234.00,0.617673
1235.00,0.618255
1236.00,0.618846
1237.00,0.619443
1238.00,0.620044
1239.00,0.620647
1240.00,0.621250
1241.00,0.621849
1242.00,0.622441
1243.00,0.623024
1244.00,0.623598
1245.00,0.624159
1246.00,0.624704
1247.00,0.625230
1248.00,0.625735
1249.00,0.626224
1250.00,0.626704
1251.00,0.627176
1252.00,0.627635
1253.00,0.628075
1254.00,0.628492
1255.00,0.628888
1256.00,0.629266
1257.00,0.629629
1258.00,0.629981
1259.00,0.630326
1260.00,0.630666
1261.00,0.631001
1262.00,0.631327
1263.00,0.631643
1264.00,0.631950
1265.00,0.632248
1266.00,0.632540
1267.00,0.632836
1268.00,0.633144
1269.00,0.633471
1270.00,0.633816
1271.00,0.634176
1272.00,0.634550
1273.00,0.634941
1274.00,0.635352
1275.00,0.635781
1276.00,0.636224
1277.00,0.636674
1278.00,0.637131
1279.00,0.637599
1280.00,0.638086
1281.00,0.638594
1282.00,0.639115
1283.00,0.639641
1284.00,0.640166
1285.00,0.640686
1286.00,0.641200
1287.00,0.641705
1288.00,0.642202
1289.00,0.642688
1290.00,0.643163
1291.00,0.643623
1292.00,0.644064
1293.00,0.644483
1294.00,0.644881
1295.00,0.645254
1296.00,0.645603
1297.00,0.645922
1298.00,0.646205
1299.00,0.646452
1300.00,0.646667
1301.00,0.646853
1302.00,0.647015
1303.00,0.647150
1304.00,0.647254
1305.00,0.647325
1306.00,0.647366
1307.00,0.647381
1308.00,0.647368
1309.00,0.647323
1310.00,0.647237
1311.00,0.647106
1312.00,0.646938
1313.00,0.646738
1314.00,0.646510
1315.00,0.646252
1316.00,0.645960
1317.00,0.645632
1318.00,0.645262
1319.00,0.644851
1320.00,0.644394
1321.00,0.643885
1322.00,0.643323
1323.00,0.642703
1324.00,0.642026
1325.00,0.641295
1326.00,0.640511
1327.00,0.639675
1328.00,0.638789
1329.00,0.637853
1330.00,0.636862
1331.00,0.635810
1332.00,0.634695
1333.00,0.633518
1334.00,0.632285
1335.00,0.630995
1336.00,0.629644
1337.00,0.628228
1338.00,0.626742
1339.00,0.625191
1340.00,0.623577
1341.00,0.621905
1342.00,0.620188
1343.00,0.618434
1344.00,0.616654
1345.00,0.614852
1346.00,0.613028
1347.00,0.611192
1348.00,0.609354
1349.00,0.607530
1350.00,0.605731
1351.00,0.603957
1352.00,0.602211
1353.00,0.600493
1354.00,0.598805
1355.00,0.597146
1356.00,0.595518
1357.00,0.593920
1358.00,0.592352
1359.00,0.590813
1360.00,0.589311
1361.00,0.587853
1362.00,0.586444
1363.00,0.585087
1364.00,0.583785
1365.00,0.582542
1366.00,0.581372
1367.00,0.580288
1368.00,0.579297
1369.00,0.578387
1370.00,0.577548
1371.00,0.576769
1372.00,0.576042
1373.00,0.575361
1374.00,0.574719
1375.00,0.574105
1376.00,0.573510
1377.00,0.572923
1378.00,0.572324
1379.00,0.571697
1380.00,0.571025
1381.00,0.570298
1382.00,0.569506
1383.00,0.568641
1384.00,0.567698
1385.00,0.566676
1386.00,0.565567
1387.00,0.564362
1388.00,0.563048
1389.00,0.561618
1390.00,0.560073
1391.00,0.558415
1392.00,0.556644
1393.00,0.554753
1394.00,0.552735
1395.00,0.550587
1396.00,0.548316
1397.00,0.545931
1398.00,0.543438
1399.00,0.540835
1400.00,0.538118
1401.00,0.535287
1402.00,0.532350
1403.00,0.529314
1404.00,0.526188
1405.00,0.522977
1406.00,0.519691
1407.00,0.516334
1408.00,0.512911
1409.00,0.509425
1410.00,0.505882
1411.00,0.502300
1412.00,0.498695
1413.00,0.495084
1414.00,0.491485
1415.00,0.487913
1416.00,0.484383
1417.00,0.480902
1418.00,0.477474
1419.00,0.474112
1420.00,0.470839
1421.00,0.467678
1422.00,0.464650
1423.00,0.461761
1424.00,0.459017
1425.00,0.456424
1426.00,0.453984
1427.00,0.451700
1428.00,0.449571
1429.00,0.447594
1430.00,0.445764
1431.00,0.444077
1432.00,0.442531
1433.00,0.441127
1434.00,0.439861
1435.00,0.438725
1436.00,0.437707
1437.00,0.436799
1438.00,0.435990
1439.00,0.435267
1440.00,0.434623
1441.00,0.434052
1442.00,0.433550
1443.00,0.433111
1444.00,0.432726
1445.00,0.432387
1446.00,0.432085
1447.00,0.431819
1448.00,0.431588
1449.00,0.431389
1450.00,0.431215
1451.00,0.431058
1452.00,0.430912
1453.00,0.430774
1454.00,0.430645
1455.00,0.430524
1456.00,0.430408
1457.00,0.430294
1458.00,0.430183
1459.00,0.430076
1460.00,0.429978
1461.00,0.429889
1462.00,0.429807
1463.00,0.429732
1464.00,0.429659
1465.00,0.429591
1466.00,0.429527
1467.00,0.429469
1468.00,0.429419
1469.00,0.429379
1470.00,0.429352
1471.00,0.429342
1472.00,0.429356
1473.00,0.429393
1474.00,0.429453
1475.00,0.429531
1476.00,0.429625
1477.00,0.429739
1478.00,0.429879
1479.00,0.430046
1480.00,0.430237
1481.00,0.430445
1482.00,0.430668
1483.00,0.430908
1484.00,0.431170
1485.00,0.431453
1486.00,0.431758
1487.00,0.432081
1488.00,0.432422
1489.00,0.432779
1490.00,0.433154
1491.00,0.433545
1492.00,0.433952
1493.00,0.434372
1494.00,0.434802
1495.00,0.435241
1496.00,0.435686
1497.00,0.436135
1498.00,0.436594
1499.00,0.437064
1500.00,0.437550
1501.00,0.438050
1502.00,0.438559
1503.00,0.439076
1504.00,0.439601
1505.00,0.440132
1506.00,0.440668
1507.00,0.441207
1508.00,0.441746
1509.00,0.442283
1510.00,0.442822
1511.00,0.443365
1512.00,0.443912
1513.00,0.444460
1514.00,0.445003
1515.00,0.445538
1516.00,0.446063
1517.00,0.446577
1518.00,0.447077
1519.00,0.447560
1520.00,0.448023
1521.00,0.448465
1522.00,0.448888
1523.00,0.449295
1524.00,0.449686
1525.00,0.450056
1526.00,0.450399
1527.00,0.450714
1528.00,0.451008
1529.00,0.451290
1530.00,0.451566
1531.00,0.451836
1532.00,0.452098
1533.00,0.452352
1534.00,0.452597
1535.00,0.452831
1536.00,0.453056
1537.00,0.453272
1538.00,0.453483
1539.00,0.453693
1540.00,0.453905
1541.00,0.454125
1542.00,0.454354
1543.00,0.454593
1544.00,0.454840
1545.00,0.455095
1546.00,0.455357
1547.00,0.455629
1548.00,0.455909
1549.00,0.456200
1550.00,0.456504
1551.00,0.456819
1552.00,0.457139
1553.00,0.457456
1554.00,0.457766
1555.00,0.458074
1556.00,0.458384
1557.00,0.458701
1558.00,0.459022
1559.00,0.459342
1560.00,0.459659
1561.00,0.459975
1562.00,0.460290
