wavelength_nm,reflectance
350.00,0.023418
351.00,0.023419
352.00,0.023421
353.00,0.023383
354.00,0.023320
355.00,0.023238
356.00,0.023126
357.00,0.022971
358.00,0.022761
359.00,0.022488
360.00,0.022189
361.00,0.021930
362.00,0.021766
363.00,0.021665
364.00,0.021538
365.00,0.021307
366.00,0.020991
367.00,0.020668
368.00,0.020407
369.00,0.020213
370.00,0.020047
371.00,0.019874
372.00,0.019681
373.00,0.019467
374.00,0.019235
375.00,0.018999
376.00,0.018784
377.00,0.018611
378.00,0.018474
379.00,0.018348
380.00,0.018208
381.00,0.018033
382.00,0.017808
383.00,0.017520
384.00,0.017205
385.00,0.016931
386.00,0.016754
387.00,0.016653
388.00,0.016555
389.00,0.016397
390.00,0.016184
391.00,0.015963
392.00,0.015780
393.00,0.015637
394.00,0.015517
395.00,0.015402
396.00,0.015275
397.00,0.015124
398.00,0.014939
399.00,0.014744
400.00,0.014584
401.00,0.014498
402.00,0.014465
403.00,0.014428
404.00,0.014336
405.00,0.014196
406.00,0.014048
407.00,0.013931
408.00,0.013849
409.00,0.013783
410.00,0.013715
411.00,0.013635
412.00,0.013540
413.00,0.013425
414.00,0.013306
415.00,0.013209
416.00,0.013157
417.00,0.013147
418.00,0.013156
419.00,0.013163
420.00,0.013158
421.00,0.013133
422.00,0.013083
423.00,0.013016
424.00,0.012947
425.00,0.012891
426.00,0.012848
427.00,0.012812
428.00,0.012778
429.00,0.012745
430.00,0.012714
431.00,0.012687
432.00,0.012664
433.00,0.012645
434.00,0.012629
435.00,0.012616
436.00,0.012606
437.00,0.012600
438.00,0.012593
439.00,0.012576
440.00,0.012543
441.00,0.012500
442.00,0.012463
443.00,0.012447
444.00,0.012449
445.00,0.012455
446.00,0.012453
447.00,0.012445
448.00,0.012438
449.00,0.012441
450.00,0.012452
451.00,0.012463
452.00,0.012469
453.00,0.012466
454.00,0.012450
455.00,0.012421
456.00,0.012389
457.00,0.012371
458.00,0.012383
459.00,0.012417
460.00,0.012450
461.00,0.012461
462.00,0.012451
463.00,0.012434
464.00,0.012421
465.00,0.012417
466.00,0.012422
467.00,0.012436
468.00,0.012454
469.00,0.012468
470.00,0.012471
471.00,0.012467
472.00,0.012465
473.00,0.012474
474.00,0.012490
475.00,0.012502
476.00,0.012501
477.00,0.012489
478.00,0.012478
479.00,0.012477
480.00,0.012487
481.00,0.012503
482.00,0.012520
483.00,0.012533
484.00,0.012539
485.00,0.012535
486.00,0.012525
487.00,0.012513
488.00,0.012507
489.00,0.012506
490.00,0.012508
491.00,0.012509
492.00,0.012510
493.00,0.012514
494.00,0.012521
495.00,0.012530
496.00,0.012534
497.00,0.012530
498.00,0.012520
499.00,0.012511
500.00,0.012509
501.00,0.012513
502.00,0.012513
503.00,0.012503
504.00,0.012485
505.00,0.012465
506.00,0.012450
507.00,0.012440
508.00,0.012433
509.00,0.012426
510.00,0.012417
511.00,0.012409
512.00,0.012402
513.00,0.012395
514.00,0.012385
515.00,0.012371
516.00,0.012352
517.00,0.012330
518.00,0.012308
519.00,0.012287
520.00,0.012267
521.00,0.012247
522.00,0.012226
523.00,0.012204
524.00,0.012178
525.00,0.012151
526.00,0.012122
527.00,0.012094
528.00,0.012069
529.00,0.012049
530.00,0.012033
531.00,0.012019
532.00,0.012001
533.00,0.011972
534.00,0.011936
535.00,0.011900
536.00,0.011873
537.00,0.011852
538.00,0.011832
539.00,0.011807
540.00,0.011778
541.00,0.011747
542.00,0.011717
543.00,0.011691
544.00,0.011671
545.00,0.011656
546.00,0.011645
547.00,0.011633
548.00,0.011614
549.00,0.011590
550.00,0.011564
551.00,0.011540
552.00,0.011518
553.00,0.011497
554.00,0.011476
555.00,0.011455
556.00,0.011434
557.00,0.011416
558.00,0.011400
559.00,0.011383
560.00,0.011365
561.00,0.011347
562.00,0.011331
563.00,0.011319
564.00,0.011310
565.00,0.011298
566.00,0.011281
567.00,0.011259
568.00,0.011238
569.00,0.011224
570.00,0.011215
571.00,0.011210
572.00,0.011205
573.00,0.011199
574.00,0.011192
575.00,0.011185
576.00,0.011178
577.00,0.011173
578.00,0.011171
579.00,0.011169
580.00,0.011166
581.00,0.011158
582.00,0.011148
583.00,0.011141
584.00,0.011144
585.00,0.011152
586.00,0.011160
587.00,0.011162
588.00,0.011159
589.00,0.011155
590.00,0.011155
591.00,0.011160
592.00,0.011168
593.00,0.011176
594.00,0.011182
595.00,0.011188
596.00,0.011190
597.00,0.011192
598.00,0.011195
599.00,0.011201
600.00,0.011209
601.00,0.011217
602.00,0.011223
603.00,0.011229
604.00,0.011237
605.00,0.011249
606.00,0.011265
607.00,0.011283
608.00,0.011299
609.00,0.011314
610.00,0.011326
611.00,0.011333
612.00,0.011339
613.00,0.011347
614.00,0.011359
615.00,0.011375
616.00,0.011389
617.00,0.011400
618.00,0.011408
619.00,0.011417
620.00,0.011429
621.00,0.011445
622.00,0.011464
623.00,0.011484
624.00,0.011505
625.00,0.011526
626.00,0.011548
627.00,0.011571
628.00,0.011593
629.00,0.011614
630.00,0.011635
631.00,0.011655
632.00,0.011675
633.00,0.011698
634.00,0.011727
635.00,0.011765
636.00,0.011811
637.00,0.011857
638.00,0.011899
639.00,0.011937
640.00,0.011979
641.00,0.012030
642.00,0.012088
643.00,0.012151
644.00,0.012214
645.00,0.012280
646.00,0.012351
647.00,0.012434
648.00,0.012527
649.00,0.012630
650.00,0.012741
651.00,0.012860
652.00,0.012986
653.00,0.013120
654.00,0.013266
655.00,0.013430
656.00,0.013616
657.00,0.013823
658.00,0.014044
659.00,0.014276
660.00,0.014522
661.00,0.014793
662.00,0.015099
663.00,0.015442
664.00,0.015814
665.00,0.016211
666.00,0.016639
667.00,0.017107
668.00,0.017625
669.00,0.018197
670.00,0.018823
671.00,0.019502
672.00,0.020239
673.00,0.021038
674.00,0.021905
675.00,0.022847
676.00,0.023873
677.00,0.024992
678.00,0.026208
679.00,0.027522
680.00,0.028938
681.00,0.030462
682.00,0.032104
683.00,0.033874
684.00,0.035778
685.00,0.037817
686.00,0.039995
687.00,0.042319
688.00,0.044797
689.00,0.047438
690.00,0.050247
691.00,0.053228
692.00,0.056384
693.00,0.059718
694.00,0.063232
695.00,0.066929
696.00,0.070814
697.00,0.074893
698.00,0.079172
699.00,0.083649
700.00,0.088320
701.00,0.093180
702.00,0.098232
703.00,0.103482
704.00,0.108934
705.00,0.114585
706.00,0.120422
707.00,0.126436
708.00,0.132627
709.00,0.139005
710.00,0.145578
711.00,0.152340
712.00,0.159275
713.00,0.166371
714.00,0.173620
715.00,0.181023
716.00,0.188578
717.00,0.196285
718.00,0.204142
719.00,0.212148
720.00,0.220296
721.00,0.228574
722.00,0.236973
723.00,0.245486
724.00,0.254110
725.00,0.262840
726.00,0.271671
727.00,0.280593
728.00,0.289598
729.00,0.298682
730.00,0.307844
731.00,0.317082
732.00,0.326386
733.00,0.335744
734.00,0.345141
735.00,0.354569
736.00,0.364018
737.00,0.373482
738.00,0.382954
739.00,0.392429
740.00,0.401902
741.00,0.411360
742.00,0.420784
743.00,0.430159
744.00,0.439475
745.00,0.448725
746.00,0.457906
747.00,0.467002
748.00,0.475992
749.00,0.484855
750.00,0.493585
751.00,0.502186
752.00,0.510658
753.00,0.518995
754.00,0.527185
755.00,0.535219
756.00,0.543085
757.00,0.550772
758.00,0.558269
759.00,0.565574
760.00,0.572692
761.00,0.579625
762.00,0.586370
763.00,0.592916
764.00,0.599252
765.00,0.605373
766.00,0.611279
767.00,0.616966
768.00,0.622441
769.00,0.627717
770.00,0.632802
771.00,0.637696
772.00,0.642394
773.00,0.646889
774.00,0.651187
775.00,0.655299
776.00,0.659236
777.00,0.663004
778.00,0.666602
779.00,0.670032
780.00,0.673299
781.00,0.676410
782.00,0.679372
783.00,0.682193
784.00,0.684877
785.00,0.687433
786.00,0.689863
787.00,0.692172
788.00,0.694362
789.00,0.696439
790.00,0.698409
791.00,0.700277
792.00,0.702051
793.00,0.703740
794.00,0.705352
795.00,0.706886
796.00,0.708337
797.00,0.709701
798.00,0.710984
799.00,0.712201
800.00,0.713363
801.00,0.714478
802.00,0.715549
803.00,0.716577
804.00,0.717557
805.00,0.718482
806.00,0.719341
807.00,0.720144
808.00,0.720908
809.00,0.721650
810.00,0.722371
811.00,0.723064
812.00,0.723722
813.00,0.724346
814.00,0.724942
815.00,0.725515
816.00,0.726067
817.00,0.726600
818.00,0.727113
819.00,0.727605
820.00,0.728076
821.00,0.728525
822.00,0.728955
823.00,0.729376
824.00,0.729793
825.00,0.730204
826.00,0.730601
827.00,0.730975
828.00,0.731328
829.00,0.731668
830.00,0.732002
831.00,0.732329
832.00,0.732644
833.00,0.732943
834.00,0.733227
835.00,0.733506
836.00,0.733785
837.00,0.734064
838.00,0.734336
839.00,0.734593
840.00,0.734837
841.00,0.735070
842.00,0.735296
843.00,0.735514
844.00,0.735720
845.00,0.735911
846.00,0.736086
847.00,0.736246
848.00,0.736393
849.00,0.736524
850.00,0.736637
851.00,0.736731
852.00,0.736802
853.00,0.736849
854.00,0.736869
855.00,0.736865
856.00,0.736840
857.00,0.736797
858.00,0.736728
859.00,0.736620
860.00,0.736461
861.00,0.736281
862.00,0.736129
863.00,0.736054
864.00,0.736081
865.00,0.736219
866.00,0.736476
867.00,0.736839
868.00,0.737280
869.00,0.737773
870.00,0.738289
871.00,0.738795
872.00,0.739260
873.00,0.739677
874.00,0.740045
875.00,0.740368
876.00,0.740649
877.00,0.740890
878.00,0.741096
879.00,0.741270
880.00,0.741417
881.00,0.741541
882.00,0.741647
883.00,0.741739
884.00,0.741822
885.00,0.741896
886.00,0.741959
887.00,0.742010
888.00,0.742046
889.00,0.742063
890.00,0.742060
891.00,0.742044
892.00,0.742029
893.00,0.742025
894.00,0.742036
895.00,0.742057
896.00,0.742085
897.00,0.742118
898.00,0.742157
899.00,0.742201
900.00,0.742256
901.00,0.742324
902.00,0.742411
903.00,0.742516
904.00,0.742636
905.00,0.742769
906.00,0.742912
907.00,0.743067
908.00,0.743234
909.00,0.743411
910.00,0.743593
911.00,0.743777
912.00,0.743962
913.00,0.744146
914.00,0.744330
915.00,0.744512
916.00,0.744689
917.00,0.744859
918.00,0.745023
919.00,0.745183
920.00,0.745341
921.00,0.745493
922.00,0.745636
923.00,0.745763
924.00,0.745873
925.00,0.745967
926.00,0.746047
927.00,0.746117
928.00,0.746182
929.00,0.746248
930.00,0.746314
931.00,0.746378
932.00,0.746434
933.00,0.746483
934.00,0.746522
935.00,0.746550
936.00,0.746575
937.00,0.746606
938.00,0.746652
939.00,0.746706
940.00,0.746754
941.00,0.746781
942.00,0.746789
943.00,0.746792
944.00,0.746800
945.00,0.746815
946.00,0.746832
947.00,0.746847
948.00,0.746858
949.00,0.746866
950.00,0.746870
951.00,0.746869
952.00,0.746863
953.00,0.746851
954.00,0.746831
955.00,0.746804
956.00,0.746771
957.00,0.746733
958.00,0.746691
959.00,0.746648
960.00,0.746606
961.00,0.746566
962.00,0.746530
963.00,0.746495
964.00,0.746460
965.00,0.746423
966.00,0.746388
967.00,0.746363
968.00,0.746355
969.00,0.746354
970.00,0.746338
971.00,0.746290
972.00,0.746214
973.00,0.746129
974.00,0.746053
975.00,0.745993
976.00,0.745946
977.00,0.745913
978.00,0.745887
979.00,0.745858
980.00,0.745821
981.00,0.745777
982.00,0.745736
983.00,0.745706
984.00,0.745682
985.00,0.745651
986.00,0.745600
987.00,0.745538
988.00,0.745480
989.00,0.745442
990.00,0.745423
991.00,0.745408
992.00,0.745385
993.00,0.745351
994.00,0.745311
995.00,0.745266
996.00,0.745222
997.00,0.745183
998.00,0.745155
999.00,0.745140
1000.00,0.745143
1001.00,0.745162
1002.00,0.745194
1003.00,0.745233
1004.00,0.745274
1005.00,0.745310
1006.00,0.745348
1007.00,0.745395
1008.00,0.745447
1009.00,0.745482
1010.00,0.745476
1011.00,0.745422
1012.00,0.745353
1013.00,0.745311
1014.00,0.745319
1015.00,0.745368
1016.00,0.745448
1017.00,0.745532
1018.00,0.745573
1019.00,0.745520
1020.00,0.745372
1021.00,0.745247
1022.00,0.745276
1023.00,0.745503
1024.00,0.745782
1025.00,0.745938
1026.00,0.745885
1027.00,0.745732
1028.00,0.745617
1029.00,0.745621
1030.00,0.745720
1031.00,0.745868
1032.00,0.746023
1033.00,0.746136
1034.00,0.746158
1035.00,0.746078
1036.00,0.745969
1037.00,0.745912
1038.00,0.745961
1039.00,0.746096
1040.00,0.746290
1041.00,0.746516
1042.00,0.746750
1043.00,0.746966
1044.00,0.747146
1045.00,0.747296
1046.00,0.747416
1047.00,0.747514
1048.00,0.747601
1049.00,0.747686
1050.00,0.747776
1051.00,0.747864
1052.00,0.747943
1053.00,0.748008
1054.00,0.748061
1055.00,0.748103
1056.00,0.748139
1057.00,0.748183
1058.00,0.748245
1059.00,0.748340
1060.00,0.748476
1061.00,0.748660
1062.00,0.748877
1063.00,0.749050
1064.00,0.749098
1065.00,0.748989
1066.00,0.748807
1067.00,0.748649
1068.00,0.748577
1069.00,0.748572
1070.00,0.748604
1071.00,0.748647
1072.00,0.748685
1073.00,0.748705
1074.00,0.748706
1075.00,0.748720
1076.00,0.748785
1077.00,0.748910
1078.00,0.749053
1079.00,0.749165
1080.00,0.749216
1081.00,0.749220
1082.00,0.749199
1083.00,0.749167
1084.00,0.749121
1085.00,0.749054
1086.00,0.748969
1087.00,0.748883
1088.00,0.748814
1089.00,0.748769
1090.00,0.748724
1091.00,0.748653
1092.00,0.748536
1093.00,0.748383
1094.00,0.748200
1095.00,0.747999
1096.00,0.747786
1097.00,0.747570
1098.00,0.747349
1099.00,0.747104
1100.00,0.746812
1101.00,0.746448
1102.00,0.745981
1103.00,0.745377
1104.00,0.744633
1105.00,0.743808
1106.00,0.742973
1107.00,0.742153
1108.00,0.741287
1109.00,0.740295
1110.00,0.739121
1111.00,0.737748
1112.00,0.736165
1113.00,0.734376
1114.00,0.732408
1115.00,0.730295
1116.00,0.728051
1117.00,0.725662
1118.00,0.723101
1119.00,0.720371
1120.00,0.717526
1121.00,0.714630
1122.00,0.711750
1123.00,0.708974
1124.00,0.706390
1125.00,0.704077
1126.00,0.702100
1127.00,0.700523
1128.00,0.699400
1129.00,0.698762
1130.00,0.698638
1131.00,0.699032
1132.00,0.699894
1133.00,0.701166
1134.00,0.702779
1135.00,0.704641
1136.00,0.706658
1137.00,0.708746
1138.00,0.710848
1139.00,0.712904
1140.00,0.714857
1141.00,0.716643
1142.00,0.718197
1143.00,0.719480
1144.00,0.720522
1145.00,0.721354
1146.00,0.722004
1147.00,0.722470
1148.00,0.722749
1149.00,0.722850
1150.00,0.722796
1151.00,0.722614
1152.00,0.722326
1153.00,0.721945
1154.00,0.721478
1155.00,0.720941
1156.00,0.720354
1157.00,0.719741
1158.00,0.719116
1159.00,0.718478
1160.00,0.717820
1161.00,0.717137
1162.00,0.716432
1163.00,0.715701
1164.00,0.714954
1165.00,0.714214
1166.00,0.713508
1167.00,0.712857
1168.00,0.712282
1169.00,0.711798
1170.00,0.711410
1171.00,0.711090
1172.00,0.710810
1173.00,0.710557
1174.00,0.710363
1175.00,0.710263
1176.00,0.710287
1177.00,0.710449
1178.00,0.710759
1179.00,0.711222
1180.00,0.711816
1181.00,0.712524
1182.00,0.713324
1183.00,0.714207
1184.00,0.715161
1185.00,0.716172
1186.00,0.717217
1187.00,0.718274
1188.00,0.719326
1189.00,0.720373
1190.00,0.721415
1191.00,0.722450
1192.00,0.723470
1193.00,0.724466
1194.00,0.725427
1195.00,0.726341
1196.00,0.727192
1197.00,0.727979
1198.00,0.728718
1199.00,0.729432
1200.00,0.730133
1201.00,0.730818
1202.00,0.731475
1203.00,0.732099
1204.00,0.732684
1205.00,0.733223
1206.00,0.733715
1207.00,0.734173
1208.00,0.734609
1209.00,0.735030
1210.00,0.735423
1211.00,0.735772
1212.00,0.736075
1213.00,0.736360
1214.00,0.736657
1215.00,0.736982
1216.00,0.737310
1217.00,0.737611
1218.00,0.737875
1219.00,0.738135
1220.00,0.738428
1221.00,0.738771
1222.00,0.739131
1223.00,0.739466
1224.00,0.739756
1225.00,0.740016
1226.00,0.740264
1227.00,0.740514
1228.00,0.740756
1229.00,0.740981
1230.00,0.741182
1231.00,0.741371
1232.00,0.741565
1233.00,0.741768
1234.00,0.741969
1235.00,0.742158
1236.00,0.742327
1237.00,0.742483
1238.00,0.742636
1239.00,0.742793
1240.00,0.742954
1241.00,0.743120
1242.00,0.743287
1243.00,0.743444
1244.00,0.743579
1245.00,0.743688
1246.00,0.743790
1247.00,0.743902
1248.00,0.744038
1249.00,0.744190
1250.00,0.744350
1251.00,0.744506
1252.00,0.744641
1253.00,0.744739
1254.00,0.744791
1255.00,0.744809
1256.00,0.744810
1257.00,0.744806
1258.00,0.744799
1259.00,0.744790
1260.00,0.744786
1261.00,0.744799
1262.00,0.744842
1263.00,0.744917
1264.00,0.745000
1265.00,0.745059
1266.00,0.745080
1267.00,0.745076
1268.00,0.745065
1269.00,0.745058
1270.00,0.745057
1271.00,0.745062
1272.00,0.745068
1273.00,0.745069
1274.00,0.745056
1275.00,0.745024
1276.00,0.744983
1277.00,0.744942
1278.00,0.744905
1279.00,0.744862
1280.00,0.744799
1281.00,0.744712
1282.00,0.744609
1283.00,0.744505
1284.00,0.744407
1285.00,0.744311
1286.00,0.744212
1287.00,0.744108
1288.00,0.744006
1289.00,0.743912
1290.00,0.743838
1291.00,0.743799
1292.00,0.743815
1293.00,0.743883
1294.00,0.743961
1295.00,0.743998
1296.00,0.743967
1297.00,0.743895
1298.00,0.743811
1299.00,0.743736
1300.00,0.743652
1301.00,0.743540
1302.00,0.743386
1303.00,0.743190
1304.00,0.742954
1305.00,0.742685
1306.00,0.742410
1307.00,0.742160
1308.00,0.741952
1309.00,0.741782
1310.00,0.741640
1311.00,0.741514
1312.00,0.741385
1313.00,0.741231
1314.00,0.741038
1315.00,0.740816
1316.00,0.740575
1317.00,0.740326
1318.00,0.740076
1319.00,0.739834
1320.00,0.739597
1321.00,0.739342
1322.00,0.739044
1323.00,0.738696
1324.00,0.738335
1325.00,0.738002
1326.00,0.737722
1327.00,0.737471
1328.00,0.737224
1329.00,0.736963
1330.00,0.736694
1331.00,0.736424
1332.00,0.736151
1333.00,0.735847
1334.00,0.735483
1335.00,0.735035
1336.00,0.734502
1337.00,0.733881
1338.00,0.733172
1339.00,0.732375
1340.00,0.731492
1341.00,0.730519
1342.00,0.729455
1343.00,0.728293
1344.00,0.727037
1345.00,0.725707
1346.00,0.724322
1347.00,0.722902
1348.00,0.721453
1349.00,0.719984
1350.00,0.718506
1351.00,0.717041
1352.00,0.715610
1353.00,0.714231
1354.00,0.712910
1355.00,0.711649
1356.00,0.710456
1357.00,0.709343
1358.00,0.708324
1359.00,0.707412
1360.00,0.706610
1361.00,0.705923
1362.00,0.705350
1363.00,0.704883
1364.00,0.704507
1365.00,0.704209
1366.00,0.703965
1367.00,0.703753
1368.00,0.703553
1369.00,0.703357
1370.00,0.703160
1371.00,0.702953
1372.00,0.702727
1373.00,0.702473
1374.00,0.702185
1375.00,0.701861
1376.00,0.701500
1377.00,0.701105
1378.00,0.700690
1379.00,0.700272
1380.00,0.699861
1381.00,0.699465
1382.00,0.699088
1383.00,0.698732
1384.00,0.698387
1385.00,0.698042
1386.00,0.697693
1387.00,0.697350
1388.00,0.697025
1389.00,0.696719
1390.00,0.696416
1391.00,0.696095
1392.00,0.695742
1393.00,0.695356
1394.00,0.694936
1395.00,0.694481
1396.00,0.693985
1397.00,0.693440
1398.00,0.692851
1399.00,0.692250
1400.00,0.691668
1401.00,0.691121
1402.00,0.690589
1403.00,0.690043
1404.00,0.689474
1405.00,0.688910
1406.00,0.688384
1407.00,0.687917
1408.00,0.687497
1409.00,0.687109
1410.00,0.686744
1411.00,0.686409
1412.00,0.686110
1413.00,0.685853
1414.00,0.685633
1415.00,0.685443
1416.00,0.685287
1417.00,0.685187
1418.00,0.685165
1419.00,0.685239
1420.00,0.685406
1421.00,0.685662
1422.00,0.686000
1423.00,0.686411
1424.00,0.686886
1425.00,0.687415
1426.00,0.687988
1427.00,0.688597
1428.00,0.689235
1429.00,0.689896
1430.00,0.690576
1431.00,0.691274
1432.00,0.691985
1433.00,0.692706
1434.00,0.693436
1435.00,0.694174
1436.00,0.694918
1437.00,0.695667
1438.00,0.696417
1439.00,0.697160
1440.00,0.697894
1441.00,0.698612
1442.00,0.699312
1443.00,0.699990
1444.00,0.700655
1445.00,0.701313
1446.00,0.701968
1447.00,0.702615
1448.00,0.703248
1449.00,0.703863
1450.00,0.704466
1451.00,0.705062
1452.00,0.705652
1453.00,0.706229
1454.00,0.706783
1455.00,0.707311
1456.00,0.707819
1457.00,0.708316
1458.00,0.708812
1459.00,0.709318
1460.00,0.709846
1461.00,0.710401
1462.00,0.710982
1463.00,0.711587
1464.00,0.712208
1465.00,0.712835
1466.00,0.713456
1467.00,0.714060
1468.00,0.714644
1469.00,0.715203
1470.00,0.715735
1471.00,0.716244
1472.00,0.716739
1473.00,0.717220
1474.00,0.717695
1475.00,0.718163
1476.00,0.718630
1477.00,0.719105
1478.00,0.719598
1479.00,0.720108
1480.00,0.720610
1481.00,0.721079
1482.00,0.721503
1483.00,0.721904
1484.00,0.722311
1485.00,0.722730
1486.00,0.723132
1487.00,0.723475
1488.00,0.723745
1489.00,0.723967
1490.00,0.724178
1491.00,0.724397
1492.00,0.724613
1493.00,0.724808
1494.00,0.724976
1495.00,0.725131
1496.00,0.725288
1497.00,0.725460
1498.00,0.725637
1499.00,0.725810
1500.00,0.725974
1501.00,0.726139
1502.00,0.726313
1503.00,0.726503
1504.00,0.726706
1505.00,0.726917
1506.00,0.727134
1507.00,0.727354
1508.00,0.727576
1509.00,0.727798
1510.00,0.728019
1511.00,0.728237
1512.00,0.728453
1513.00,0.728670
1514.00,0.728891
1515.00,0.729115
1516.00,0.729333
1517.00,0.729533
1518.00,0.729709
1519.00,0.729858
1520.00,0.729981
1521.00,0.730079
1522.00,0.730151
1523.00,0.730197
1524.00,0.730220
1525.00,0.730231
1526.00,0.730239
1527.00,0.730252
1528.00,0.730266
1529.00,0.730275
1530.00,0.730277
1531.00,0.730279
1532.00,0.730289
1533.00,0.730310
1534.00,0.730337
1535.00,0.730364
1536.00,0.730388
1537.00,0.730405
1538.00,0.730416
1539.00,0.730422
1540.00,0.730428
1541.00,0.730439
1542.00,0.730455
1543.00,0.730468
1544.00,0.730465
1545.00,0.730444
1546.00,0.730407
1547.00,0.730364
1548.00,0.730316
1549.00,0.730258
1550.00,0.730184
1551.00,0.730091
1552.00,0.729988
1553.00,0.729890
1554.00,0.729806
1555.00,0.729740
1556.00,0.729696
1557.00,0.729679
1558.00,0.729683
1559.00,0.729704
1560.00,0.729740
1561.00,0.729789
1562.00,0.729850
